,0,1,2,3,4,5,6,7,8,9,10,11,12,13,14,15,16,17,18,19,20,21,22,23,24,25,26,27,28,29,30,31,32,33,34,35,36,37,38,39,40,41,42,43,44,45,46,47,48,49,50,51,52,53,54,55,56,57,58,59,60,61,62,63,64,65,66,67,68,69,70,71,72,73,74,75,76,77,78,79,80,81,82,83,84,85,86,87,88,89,90,91,92,93,94,95,96,97,98,99,100,101,102,103,104,105,106,107,108,109,110,111,112,113,114,115,116,117,118,119,120,121,122,123,124,125,126,127,128,129,130,131,132,133,134,135,136,137,138,139,140,141,142,143,144,145,146,147,148,149,150,151,152,153,154,155,156,157,158,159,160,161,162,163,164,165,166,167,168,169,170,171,172,173,174,175,176,177,178,179,180,181,182,183,184,185,186,187,188,189,190,191,192,193,194,195,196,197,198,199
0,5.9001030921936035,4.56043815612793,3.884176015853882,2.911113739013672,2.3806569576263428,2.1445207595825195,1.8848086595535278,1.6722311973571777,1.4594216346740723,1.2021479606628418,0.9486649036407471,0.7324678301811218,0.5048624277114868,0.3569975197315216,0.22181910276412964,0.15338818728923798,0.09488341957330704,0.06112339720129967,0.043871231377124786,0.03079093247652054,0.02138177677989006,0.018204502761363983,0.014301883056759834,0.010476084426045418,0.008599117398262024,0.007534421049058437,0.006453437265008688,0.005685038864612579,0.005020342767238617,0.004566262010484934,0.004156589973717928,0.003791166702285409,0.003521927632391453,0.0033106543123722076,0.0031372334342449903,0.0029854278545826674,0.0028363363817334175,0.0027087556663900614,0.002602765103802085,0.0024999110028147697,0.002404065802693367,0.002315644873306155,0.0022366787306964397,0.0021667135879397392,0.0020963724236935377,0.0020226880442351103,0.0019543434027582407,0.0018897575791925192,0.0018331743776798248,0.0017833763267844915,0.0017341547645628452,0.0016842547338455915,0.0016360604204237461,0.0015899674035608768,0.0015471334336325526,0.0015047128545120358,0.0014660600572824478,0.0014285496436059475,0.0013943734811618924,0.0013581995153799653,0.0013231139164417982,0.0012888074852526188,0.0012577471788972616,0.0012274725595489144,0.0012002082075923681,0.0011731472332030535,0.0011461831163614988,0.001119811087846756,0.001094396342523396,0.001070353202521801,0.00104797154199332,0.0010251603089272976,0.001004016026854515,0.0009816469391807914,0.0009602733771316707,0.0009377376409247518,0.0009187709074467421,0.0009002105216495693,0.0008838183712214231,0.0008648226503282785,0.0008466804283671081,0.0008295581210404634,0.0008135481621138752,0.0007980202208273113,0.0007827249355614185,0.0007681137649342418,0.000754058884922415,0.0007405525539070368,0.0007261612336151302,0.0007119022193364799,0.0006985245272517204,0.0006854353123344481,0.0006734751514159143,0.0006623688386753201,0.0006520823226310313,0.0006396544049493968,0.0006276358617469668,0.0006168915424495935,0.0006067058420740068,0.0005975926178507507,0.0005875856149941683,0.0005778066697530448,0.0005683888448402286,0.0005589905194938183,0.0005504650180228055,0.000541717919986695,0.0005329076084308326,0.0005245610955171287,0.0005165595794096589,0.0005080424016341567,0.0004996747011318803,0.000492288323584944,0.00048525098827667534,0.0004785236669704318,0.0004712835361715406,0.0004644483851734549,0.00045789685100317,0.0004513678723014891,0.0004445758240763098,0.0004381299950182438,0.00043197887134738266,0.0004258330154698342,0.0004199369577690959,0.00041425280505791306,0.00040855249972082675,0.00040288237505592406,0.00039753789315000176,0.0003925143973901868,0.00038718635914847255,0.00038187275640666485,0.00037681811954826117,0.0003717474464792758,0.00036733405431732535,0.0003628535778261721,0.0003579686162993312,0.00035306671634316444,0.00034862064057961106,0.0003441149601712823,0.0003403560840524733,0.00033609280944801867,0.0003319126844871789,0.00032777173328213394,0.0003237246710341424,0.0003198381746187806,0.00031580717768520117,0.00031204972765408456,0.0003085032803937793,0.0003051781968679279,0.0003017425478901714,0.00029832974541932344,0.0002947543980553746,0.0002913991338573396,0.00028788248891942203,0.0002844043483491987,0.0002808951830957085,0.00027778602088801563,0.0002747004618868232,0.0002714601578190923,0.0002684501523617655,0.0002654915442690253,0.0002624203625600785,0.00025949906557798386,0.0002566144976299256,0.00025389500660821795,0.0002511747006792575,0.0002483654534444213,0.0002458184608258307,0.0002431047905702144,0.00024048873456194997,0.00023790288832969964,0.00023533773492090404,0.00023298607266042382,0.00023052601318340749,0.00022812590759713203,0.00022594713664148003,0.00022370711667463183,0.00022149941651150584,0.00021921224833931774,0.00021701694640796632,0.00021480509894900024,0.00021261147048790008,0.00021033135999459773,0.00020832561131101102,0.0002062569255940616,0.0002042093256022781,0.000202198963961564,0.0002002804249059409,0.00019842316396534443,0.00019656385120470077,0.00019484311633277684,0.0001929428253788501,0.0001912105071824044,0.00018932057719212025,0.0001873809815151617,0.00018569956591818482,0.00018393414211459458,0.00018222957442048937,0.00018054158135782927,0.00017876004858408123,0.0001771332899807021
1,6.069232940673828,4.778299331665039,3.4621801376342773,2.5941333770751953,2.234739303588867,2.0743284225463867,1.8332552909851074,1.6403965950012207,1.420475959777832,1.1685956716537476,0.9395250678062439,0.7021076679229736,0.505230188369751,0.3598872423171997,0.23695069551467896,0.1555250734090805,0.09819868206977844,0.065382219851017,0.043827496469020844,0.030410856008529663,0.021787554025650024,0.01695171184837818,0.013195895589888096,0.010707073844969273,0.009004947729408741,0.007706665433943272,0.00667802058160305,0.005969760473817587,0.005386355798691511,0.0049237753264606,0.0045279935002326965,0.004165582358837128,0.0039047785103321075,0.003685978939756751,0.0034946671221405268,0.003316352842375636,0.0031535178422927856,0.0030159782618284225,0.0028910108376294374,0.002780040493234992,0.0026690198574215174,0.0025698868557810783,0.002475799759849906,0.0023828870616853237,0.0023032082244753838,0.0022320325952023268,0.0021630441769957542,0.002079890575259924,0.0020151420030742884,0.0019577210769057274,0.0018980716122314334,0.0018412446370348334,0.001782578299753368,0.001733150682412088,0.0016826370265334845,0.0016346813645213842,0.0015911285299807787,0.001550321001559496,0.0015099081210792065,0.0014719595201313496,0.001433896948583424,0.0013967242557555437,0.001360464608296752,0.001325151533819735,0.0012962353648617864,0.0012631072895601392,0.0012327722506597638,0.001204011496156454,0.0011769129196181893,0.0011527639580890536,0.0011272645788267255,0.0011018372606486082,0.0010775919072329998,0.0010550982551649213,0.0010334093822166324,0.0010119258658960462,0.0009908637730404735,0.0009693346219137311,0.0009499730076640844,0.0009311573230661452,0.0009126423974521458,0.0008949074544943869,0.0008767918916419148,0.0008598113199695945,0.0008432689355686307,0.0008277955348603427,0.0008127178880386055,0.0007999251829460263,0.000785651383921504,0.0007721511647105217,0.0007572973263449967,0.0007427799282595515,0.0007286528125405312,0.0007161321700550616,0.0007049707346595824,0.0006927483482286334,0.0006801299168728292,0.0006679825601167977,0.0006564430077560246,0.0006452301749959588,0.0006348795141093433,0.00062498141778633,0.0006157290772534907,0.0006057979771867394,0.0005960313137620687,0.0005866793217137456,0.0005770927527919412,0.0005682138726115227,0.0005602386081591249,0.0005515024531632662,0.0005431852769106627,0.000534542603418231,0.0005267689703032374,0.0005189335206523538,0.0005112746730446815,0.000504156167153269,0.0004970201407559216,0.0004894905723631382,0.00048223629710264504,0.0004750976513605565,0.0004683889274019748,0.00046178404591046274,0.0004553882754407823,0.0004486961988732219,0.00044251378858461976,0.00043615337926894426,0.0004304463800508529,0.00042443888378329575,0.0004188105813227594,0.00041351132676936686,0.0004077391349710524,0.00040238743531517684,0.0003969453973695636,0.00039198811282403767,0.00038736179703846574,0.00038226036122068763,0.00037734516081400216,0.00037267443258315325,0.00036808557342737913,0.00036367870052345097,0.00035911344457417727,0.00035463913809508085,0.0003503815969452262,0.0003460702719166875,0.00034200274967588484,0.00033843336859717965,0.00033437737147323787,0.0003304983547423035,0.0003267926804255694,0.0003231478331144899,0.00031931756529957056,0.00031561224022880197,0.0003118298773188144,0.000308055809000507,0.000304641347611323,0.00030133360996842384,0.0002981354482471943,0.00029493035981431603,0.0002917889505624771,0.0002885732101276517,0.00028529728297144175,0.0002821492380462587,0.00027929534553550184,0.00027602975023910403,0.00027299951761960983,0.000270186981651932,0.000267189898295328,0.00026458018692210317,0.0002619696024339646,0.00025918931351043284,0.00025630774325691164,0.00025370460934937,0.0002510592748876661,0.0002484250580891967,0.00024579407181590796,0.00024341755488421768,0.0002409930166322738,0.0002384935796726495,0.00023630823125131428,0.0002340177888981998,0.0002316289028385654,0.00022934473236091435,0.00022718802210874856,0.00022481979976873845,0.00022264476865530014,0.00022030880791135132,0.0002182082535000518,0.00021620992629323155,0.00021421076962724328,0.0002121809811796993,0.00021023106819484383,0.00020833830058109015,0.00020628576749004424,0.00020433502504602075,0.00020250225497875363,0.0002005684800678864,0.00019874599820468575,0.000196794411749579,0.0001950583973666653,0.0001932880695676431
2,4.810595512390137,4.153388977050781,3.002873659133911,2.278843879699707,1.9810261726379395,1.7516975402832031,1.4763914346694946,1.2101904153823853,0.9379201531410217,0.6749295592308044,0.4565572738647461,0.2994832992553711,0.17942427098751068,0.11117292940616608,0.06843482702970505,0.04375090077519417,0.029857980087399483,0.019598256796598434,0.015171338804066181,0.011699138209223747,0.008964776992797852,0.007169197779148817,0.00617345841601491,0.005471034906804562,0.004761375952512026,0.004134569317102432,0.003669017693027854,0.003371130907908082,0.0031628760043531656,0.0029732563998550177,0.0027877127286046743,0.002603810280561447,0.0024611027911305428,0.002352178795263171,0.002262282883748412,0.0021752070169895887,0.002089489484205842,0.002012483077123761,0.0019427362130954862,0.0018776016077026725,0.0018140828469768167,0.0017591331852599978,0.0017061573453247547,0.0016531792934983969,0.0016080242348834872,0.0015599114121869206,0.001512692659161985,0.00147084123454988,0.0014318485045805573,0.0013952364679425955,0.0013600016245618463,0.0013246091548353434,0.001291029853746295,0.001256604678928852,0.0012238739291206002,0.00119507045019418,0.0011652280809357762,0.0011373987654224038,0.0011109317420050502,0.001086753560230136,0.0010619082022458315,0.0010371437529101968,0.0010121831437572837,0.0009884739993140101,0.0009670865256339312,0.0009469327633269131,0.0009276378550566733,0.0009087576763704419,0.0008883368573151529,0.0008710932452231646,0.0008529720362275839,0.0008360263309441507,0.0008168122731149197,0.0008003024850040674,0.0007844945066608489,0.0007697045220993459,0.0007554390467703342,0.0007403327617794275,0.0007259522099047899,0.0007118300418369472,0.000699065625667572,0.0006866030744276941,0.0006745714927092195,0.0006624103989452124,0.00065068737603724,0.0006392525974661112,0.0006281423848122358,0.0006169308326207101,0.0006061104359105229,0.0005952836363576353,0.0005855910130776465,0.000575995072722435,0.0005673386622220278,0.0005580532015301287,0.0005488326423801482,0.0005397287313826382,0.0005311393761076033,0.0005225130589678884,0.0005148787749931216,0.0005064347060397267,0.0004982443060725927,0.0004904938396066427,0.0004833057173527777,0.0004759696894325316,0.00046891611418686807,0.00046226760605350137,0.0004553012549877167,0.00044878333574160933,0.0004424565704539418,0.0004357723519206047,0.00042979122372344136,0.00042354967445135117,0.0004178962262813002,0.000412431254517287,0.0004068612470291555,0.0004010714474134147,0.00039511261275038123,0.0003888608480338007,0.00038345676148310304,0.0003779252292588353,0.00037298485403880477,0.0003683335962705314,0.00036362186074256897,0.00035898081841878593,0.0003544282808434218,0.0003499394515529275,0.0003450882213655859,0.0003406306786928326,0.00033632802660577,0.0003320969408378005,0.00032794440630823374,0.0003235572366975248,0.0003193588927388191,0.00031552548171021044,0.00031184020917862654,0.00030811637407168746,0.00030457202228717506,0.00030074085225351155,0.0002971823560073972,0.00029337964951992035,0.000290235155262053,0.00028665715944953263,0.00028349997592158616,0.0002800618240144104,0.00027650827541947365,0.0002730482374317944,0.0002697660820558667,0.00026680409791879356,0.000264100352069363,0.00026111971237696707,0.00025814989930950105,0.00025525750243104994,0.00025226749130524695,0.000249394157435745,0.0002465778961777687,0.00024385344295296818,0.00024138178559951484,0.0002388427237747237,0.00023621840227860957,0.00023379269987344742,0.00023127430176828057,0.00022875794093124568,0.00022632056789007038,0.0002240867615910247,0.0002217722503701225,0.00021960301091894507,0.00021702659432776272,0.00021471123909577727,0.00021247495897114277,0.00021025976457167417,0.0002081496932078153,0.000206078912015073,0.0002041484258370474,0.0002021893742494285,0.0002002100518438965,0.000198136389371939,0.00019618356600403786,0.0001942117523867637,0.00019234044884797186,0.00019043643260374665,0.00018859695410355926,0.00018687421106733382,0.00018507448839955032,0.0001833538117352873,0.00018165916844736785,0.00017989292973652482,0.0001781788159860298,0.00017657148418948054,0.00017492439656052738,0.00017333525465801358,0.000171638501342386,0.00017012716853059828,0.00016847594815772027,0.00016694224905222654,0.00016539072385057807,0.0001640043774386868,0.00016266846796497703,0.00016120844520628452,0.0001597098889760673,0.00015830488700885326
3,4.943568706512451,4.1021881103515625,3.106549024581909,2.6878087520599365,2.2249951362609863,1.9333826303482056,1.6775580644607544,1.3533763885498047,1.1146382093429565,0.8729279041290283,0.6220517158508301,0.46011579036712646,0.28689634799957275,0.19117823243141174,0.11904178559780121,0.081018827855587,0.05203711614012718,0.03344434127211571,0.02669988013803959,0.01909206062555313,0.013101097196340561,0.010834764689207077,0.00935701746493578,0.007899763062596321,0.006578442640602589,0.005448703654110432,0.0048500425182282925,0.004487348720431328,0.004163938108831644,0.00382820563390851,0.003510580398142338,0.003247247776016593,0.0030627569649368525,0.0029342041816562414,0.0027875113300979137,0.0026590311899781227,0.0025430938694626093,0.002435486763715744,0.002343481406569481,0.002263917587697506,0.002186424098908901,0.002111029578372836,0.0020384464878588915,0.001975271850824356,0.0019141166703775525,0.0018542667385190725,0.0017991121858358383,0.001750139519572258,0.0017039589583873749,0.0016560027142986655,0.0016058580949902534,0.0015613161958754063,0.0015246329130604863,0.0014823672827333212,0.0014471682952716947,0.0014066461008042097,0.001372289378196001,0.0013396248687058687,0.001305926125496626,0.0012750736204907298,0.0012471647933125496,0.0012190233683213592,0.0011942096753045917,0.001168115995824337,0.0011407289421185851,0.0011131855426356196,0.0010872511193156242,0.0010646412847563624,0.0010434617288410664,0.0010217389790341258,0.0010011550039052963,0.0009816574165597558,0.0009614209411665797,0.0009412004146724939,0.000922379782423377,0.0009040220757015049,0.0008869154844433069,0.0008695954456925392,0.0008528194157406688,0.0008359997882507741,0.0008197194547392428,0.0008039481472223997,0.0007889402331784368,0.000775251945015043,0.000762128853239119,0.0007489529671147466,0.0007351053063757718,0.0007220099214464426,0.0007098065107129514,0.0006968117668293417,0.0006846260512247682,0.0006735247443430126,0.0006613672012463212,0.0006499923765659332,0.0006392780924215913,0.0006285786512307823,0.0006183675723150373,0.0006088839145377278,0.0005993449594825506,0.0005901062395423651,0.0005804484826512635,0.0005713299615308642,0.0005629124934785068,0.0005534236552193761,0.0005445436108857393,0.0005362531519494951,0.0005279532633721828,0.0005204328917898238,0.000512594822794199,0.0005051952321082354,0.0004970265435986221,0.0004899107734672725,0.00048345408868044615,0.0004764157347381115,0.0004694082017522305,0.00046224886318668723,0.0004557417705655098,0.0004499184142332524,0.00044358454761095345,0.0004371481772977859,0.00043052571709267795,0.0004245047166477889,0.0004190392792224884,0.00041381362825632095,0.0004085256077814847,0.00040295382495969534,0.0003973959537688643,0.00039198959711939096,0.0003869245992973447,0.00038181483978405595,0.00037737979437224567,0.00037279847310855985,0.00036808988079428673,0.0003635186003521085,0.00035899330396205187,0.0003544917271938175,0.0003503133193589747,0.0003459797881077975,0.0003418148262426257,0.0003376948297955096,0.00033362358226440847,0.0003297223011031747,0.00032577753881923854,0.0003219986392650753,0.000318251084536314,0.00031501412740908563,0.00031137545011006296,0.0003074831620324403,0.0003039425937458873,0.0003002469602506608,0.00029691780218854547,0.0002935299417003989,0.00029037368949502707,0.0002871350443456322,0.000283877772744745,0.0002807570854201913,0.0002776686451397836,0.000274756079306826,0.0002719006733968854,0.0002688225358724594,0.000265830458374694,0.00026295753195881844,0.00026019749930128455,0.0002575177059043199,0.00025486439699307084,0.0002523707807995379,0.0002496942470315844,0.000247149815550074,0.0002447534934617579,0.0002423385885776952,0.0002399200020590797,0.00023735902504995465,0.00023492754553444684,0.00023236747074406594,0.000229953060625121,0.00022768141934648156,0.00022554420866072178,0.0002234847634099424,0.00022118029301054776,0.0002190595114370808,0.0002168414939660579,0.00021468012710101902,0.00021259651111904532,0.00021048974303994328,0.00020842971571255475,0.00020641024457290769,0.00020453514298424125,0.00020266255887690932,0.0002006894355872646,0.0001989037700695917,0.0001970039156731218,0.0001952220336534083,0.00019331806106492877,0.0001914736785693094,0.000189740996574983,0.0001880418130895123,0.00018635917513165623,0.00018468400230631232,0.00018296041525900364,0.00018132085097022355
4,5.645184516906738,4.166161060333252,3.537419557571411,2.9761247634887695,2.6183996200561523,2.132510185241699,1.8484772443771362,1.5391608476638794,1.20859956741333,0.9624248147010803,0.6787700653076172,0.5045779347419739,0.3311731517314911,0.22573420405387878,0.1487276405096054,0.09833177924156189,0.06224382668733597,0.05225701630115509,0.030819300562143326,0.025329234078526497,0.01845228299498558,0.013097595423460007,0.01194758340716362,0.010324705392122269,0.008032932877540588,0.006480040028691292,0.005771606229245663,0.0053142583929002285,0.0048634265549480915,0.004413455259054899,0.004030661657452583,0.0037940400652587414,0.0035943398252129555,0.003410765901207924,0.0032264727633446455,0.0030622310005128384,0.0029329992830753326,0.0028195239137858152,0.0027243488002568483,0.0026255983393639326,0.0025269181933254004,0.002437530318275094,0.0023635246325284243,0.002288535237312317,0.0022163311950862408,0.002146711340174079,0.002081886865198612,0.002024418441578746,0.0019703709986060858,0.0019170460291206837,0.0018609371036291122,0.0018090171506628394,0.0017608872149139643,0.001714022713713348,0.0016706647584214807,0.0016319571295753121,0.0015883840387687087,0.001548398518934846,0.0015102297766134143,0.001473556854762137,0.0014399258652701974,0.0014075891813263297,0.0013745083706453443,0.0013428806560114026,0.001310021965764463,0.0012798875104635954,0.0012533391127362847,0.0012262029340490699,0.0011989668710157275,0.0011734884465113282,0.0011488356394693255,0.0011235299753025174,0.0011010703165084124,0.0010775905102491379,0.0010552597232162952,0.001034745597280562,0.0010150573216378689,0.0009959680028259754,0.0009751262841746211,0.0009569660178385675,0.0009394541848450899,0.0009209476411342621,0.000903074920643121,0.0008873866172507405,0.0008695393335074186,0.0008534700027666986,0.0008376720361411572,0.0008220161544159055,0.0008072797209024429,0.0007930619176477194,0.0007791383541189134,0.0007656865054741502,0.0007526142871938646,0.0007399537716992199,0.0007275042007677257,0.0007151549798436463,0.0007041473290883005,0.0006929458468221128,0.0006823177682235837,0.0006710066227242351,0.0006606845417991281,0.0006509077502414584,0.0006410658243112266,0.0006318942178040743,0.0006213460583239794,0.0006123963976278901,0.0006020776345394552,0.0005929206381551921,0.0005841103265993297,0.0005758315091952682,0.0005673514679074287,0.0005592866218648851,0.0005510355695150793,0.0005433016922324896,0.0005357037880457938,0.0005280773621052504,0.0005204557091929018,0.0005127743352204561,0.0005052698543295264,0.0004978803917765617,0.0004913677694275975,0.0004855559964198619,0.00047910245484672487,0.0004721191362477839,0.0004650622431654483,0.00045886216685175896,0.00045277425670064986,0.00044679228449240327,0.0004410009423736483,0.0004355623386800289,0.0004300213186070323,0.0004243301518727094,0.0004188787715975195,0.00041366880759596825,0.00040854731923900545,0.00040340438135899603,0.0003980963956564665,0.0003931684186682105,0.00038826081436127424,0.0003834309463854879,0.00037867712671868503,0.000374510302208364,0.0003700725210364908,0.0003659504000097513,0.00036145231570117176,0.0003572815330699086,0.0003527064109221101,0.0003489007067400962,0.00034498496097512543,0.0003410262579564005,0.0003372170322109014,0.0003332546621095389,0.00032943999394774437,0.00032551263575442135,0.0003218629281036556,0.0003180757921654731,0.000314478442305699,0.00031088083051145077,0.00030757440254092216,0.00030436523957177997,0.00030102572054602206,0.0002979269775096327,0.0002946507011074573,0.0002917211677413434,0.0002885491994675249,0.00028560266946442425,0.00028250267496332526,0.0002792698214761913,0.0002766675897873938,0.0002736155583988875,0.00027082295855507255,0.0002681859477888793,0.00026546328444965184,0.0002626003115437925,0.00025995163014158607,0.0002571324585005641,0.0002545321767684072,0.000252070021815598,0.00024954418768174946,0.00024711189325898886,0.00024475035024806857,0.00024230190319940448,0.0002398919314146042,0.00023764788056723773,0.0002353558229515329,0.00023308119853027165,0.00023098861856851727,0.0002287085517309606,0.0002265687653562054,0.00022453692508861423,0.00022253574570640922,0.00022053747670724988,0.000218520566704683,0.0002165028126910329,0.00021443626610562205,0.00021252609440125525,0.00021054681565146893,0.00020859731012023985,0.00020683980255853385,0.0002050169132417068
5,6.526139259338379,4.483828544616699,3.5680291652679443,2.901346206665039,2.535928964614868,2.1117541790008545,1.8202201128005981,1.6112313270568848,1.4005452394485474,1.1571706533432007,0.9358426332473755,0.7087705135345459,0.5221497416496277,0.36357593536376953,0.2550615668296814,0.1670297533273697,0.12403050810098648,0.0747477114200592,0.05574120953679085,0.039469700306653976,0.026637719944119453,0.02136896923184395,0.01678110472857952,0.013074717484414577,0.010848904959857464,0.009541768580675125,0.008298707194626331,0.0072885784320533276,0.006722429301589727,0.006203097756952047,0.005611501168459654,0.00508431252092123,0.004772024229168892,0.00449341582134366,0.004265658091753721,0.004047328606247902,0.0038527538999915123,0.003667517565190792,0.0035124521236866713,0.0033771730959415436,0.0032478419598191977,0.0031264466233551502,0.0030039427801966667,0.002887279260903597,0.0027935481630265713,0.0027026673778891563,0.002620261162519455,0.002543217036873102,0.0024619209580123425,0.0023746180813759565,0.0023009723518043756,0.0022344307508319616,0.002171199768781662,0.002109487308189273,0.0020532181952148676,0.001996527425944805,0.0019432330736890435,0.001892488682642579,0.001843719044700265,0.0017950390465557575,0.0017536545637995005,0.0017087929882109165,0.0016687036259099841,0.0016267747851088643,0.0015878805425018072,0.001549978624098003,0.0015146461082622409,0.0014835335314273834,0.0014483300037682056,0.0014139970298856497,0.0013801534660160542,0.0013494789600372314,0.0013215465005487204,0.0012931626988574862,0.0012672293232753873,0.0012389278272166848,0.001211737748235464,0.0011874752817675471,0.0011647039791569114,0.0011425436241552234,0.0011213425314053893,0.001100473920814693,0.0010776339331641793,0.0010548039572313428,0.0010342811001464725,0.0010151284513995051,0.0009976824512705207,0.0009791577467694879,0.0009596665622666478,0.0009408898185938597,0.0009236533660441637,0.0009077819413505495,0.0008916271035559475,0.000875418889336288,0.000860012776684016,0.0008453660411760211,0.0008316278690472245,0.0008190763182938099,0.000805791700258851,0.0007922211661934853,0.0007784732151776552,0.0007654120563529432,0.000752174062654376,0.0007397066801786423,0.0007268563495017588,0.0007153266342356801,0.0007040145574137568,0.0006931580137461424,0.0006827833130955696,0.0006725682178512216,0.0006620374042540789,0.0006515796412713826,0.0006420206627808511,0.0006327275768853724,0.0006230692379176617,0.0006138089811429381,0.0006045830086804926,0.0005958647234365344,0.0005868152366019785,0.000578689796384424,0.0005703060305677354,0.0005626089405268431,0.0005551662179641426,0.000546522147487849,0.000538576627150178,0.0005314818699844182,0.0005241528851911426,0.0005177545244805515,0.0005108959740027785,0.0005041588447056711,0.0004971462767571211,0.0004908385453745723,0.00048418331425637007,0.0004777332069352269,0.000471685198135674,0.000465934892417863,0.00045984351891092956,0.0004537543863989413,0.0004482822841964662,0.00044306780910119414,0.0004380607570055872,0.000432695378549397,0.00042723421938717365,0.0004217706446070224,0.00041657304973341525,0.00041111971950158477,0.00040643117972649634,0.0004014566948171705,0.00039688419201411307,0.00039209111128002405,0.0003875020192936063,0.0003830791683867574,0.00037865707417950034,0.0003746842558030039,0.0003704553237184882,0.000365960382623598,0.00036151392851024866,0.00035718412254936993,0.00035316121648065746,0.000349274865584448,0.00034523411886766553,0.0003416298422962427,0.0003380430571269244,0.00033412815537303686,0.000330208771629259,0.00032673077657818794,0.0003231435257475823,0.0003194850287400186,0.00031621879315935075,0.000312823336571455,0.0003094221174251288,0.0003062538744416088,0.0003030582156497985,0.00029988744063302875,0.000296712969429791,0.00029358899337239563,0.00029076996725052595,0.00028774316888302565,0.00028491171542555094,0.00028199455118738115,0.0002791742153931409,0.00027632201090455055,0.00027363692061044276,0.00027091667288914323,0.0002680945908650756,0.00026543886633589864,0.00026283811894245446,0.00026040038210339844,0.0002578169805929065,0.0002554467355366796,0.00025311572244390845,0.0002507686731405556,0.00024837811361066997,0.0002458911912981421,0.00024351145839318633,0.00024101088638417423,0.00023887568386271596,0.00023670114751439542,0.00023452661116607487,0.00023241490998771042
6,6.552036285400391,4.3219194412231445,3.589702606201172,3.046961784362793,2.5547845363616943,2.194626569747925,1.9732799530029297,1.7686702013015747,1.5724527835845947,1.3443315029144287,1.0973999500274658,0.8545374274253845,0.6550024151802063,0.4538903832435608,0.32206451892852783,0.22477515041828156,0.14189930260181427,0.09422105550765991,0.06722156703472137,0.04551653563976288,0.033841561526060104,0.022803105413913727,0.01982874609529972,0.01609255187213421,0.012692728079855442,0.010612460784614086,0.008899335749447346,0.007891152054071426,0.007133806124329567,0.006357520818710327,0.005714483559131622,0.0052061970345675945,0.004825737792998552,0.004521270748227835,0.004268149379640818,0.004024001769721508,0.0037906463257968426,0.003613971173763275,0.003471657168120146,0.003334200009703636,0.003183897817507386,0.003033017972484231,0.002921300008893013,0.0028287454042583704,0.002723557874560356,0.0026151256170123816,0.002518340013921261,0.0024461548309773207,0.0023733959533274174,0.0022941711358726025,0.0022200378589332104,0.0021489555947482586,0.0020831602159887552,0.0020225774496793747,0.001965795410797,0.0019121426157653332,0.0018571921391412616,0.0018074666149914265,0.00175925949588418,0.0017189588397741318,0.001677045482210815,0.0016335363034158945,0.0015916795236989856,0.0015498424181714654,0.001511649927124381,0.0014749991241842508,0.0014404796529561281,0.0014059352688491344,0.0013717928668484092,0.001340056536719203,0.0013087661936879158,0.001281318604014814,0.0012503828620538116,0.0012217339826747775,0.0011950632324442267,0.0011706367367878556,0.0011476180516183376,0.0011239068116992712,0.0010978049831464887,0.0010746404295787215,0.0010529767023399472,0.0010323593160137534,0.001011968357488513,0.000992688350379467,0.0009724083938635886,0.0009540977771393955,0.0009346943697892129,0.0009173454018309712,0.0009008005727082491,0.0008844887488521636,0.0008704329957254231,0.0008541282149963081,0.0008392561576329172,0.0008241879986599088,0.0008085778681561351,0.0007939800270833075,0.0007798662409186363,0.0007668221369385719,0.0007544208783656359,0.0007414187421090901,0.0007287007756531239,0.0007162558613345027,0.0007051556021906435,0.0006943091284483671,0.0006835528183728456,0.0006719823577441275,0.0006613832665607333,0.0006507382495328784,0.0006400435813702643,0.0006297600921243429,0.0006203569355420768,0.0006112238042987883,0.0006020170985721052,0.0005927699967287481,0.0005832979804836214,0.00057473115157336,0.0005672869156114757,0.0005590711953118443,0.0005513445357792079,0.0005432842299342155,0.000535139930434525,0.0005267717642709613,0.000519575783982873,0.0005118596600368619,0.0005050537292845547,0.0004980626399628818,0.0004917738842777908,0.0004848461248911917,0.00047798114246688783,0.0004712292575277388,0.0004652247589547187,0.0004592004988808185,0.0004534414620138705,0.0004475881578400731,0.0004414876166265458,0.0004355889977887273,0.00042986159678548574,0.0004240934213157743,0.0004185230063740164,0.00041334604611620307,0.00040833413368090987,0.00040333851939067245,0.00039840381941758096,0.00039325671968981624,0.0003883001336362213,0.00038351479452103376,0.00037916426663286984,0.0003744720888789743,0.00036981626180931926,0.00036557752173393965,0.00036112769157625735,0.0003570266126189381,0.0003529541427269578,0.0003488349902909249,0.0003446583868935704,0.00034052220871672034,0.0003365709853824228,0.00033278355840593576,0.00032904036925174296,0.0003254051844123751,0.0003217641497030854,0.00031815009424462914,0.00031449165544472635,0.00031113263685256243,0.0003077722794841975,0.00030448613688349724,0.0003011066000908613,0.000298003782518208,0.0002948177279904485,0.00029153574723750353,0.0002884863060899079,0.00028523526270873845,0.00028222744003869593,0.0002792812592815608,0.0002764113014563918,0.000273366691544652,0.0002705430379137397,0.00026774793514050543,0.0002649817615747452,0.00026214891113340855,0.0002595143159851432,0.00025682870182208717,0.00025413287221454084,0.0002517321554478258,0.00024901481810957193,0.000246733077801764,0.00024432101054117084,0.00024175879661925137,0.00023927472648210824,0.00023690605303272605,0.00023466857965104282,0.00023242489260155708,0.00023027887800708413,0.00022816265118308365,0.00022603821707889438,0.00022392411483451724,0.0002218186855316162,0.00021980715973768383,0.00021766488498542458,0.00021569227101281285
