,0,1,2,3,4,5,6,7,8,9,10,11,12,13,14,15,16,17,18,19,20,21,22,23,24,25,26,27,28,29,30,31,32,33,34,35,36,37,38,39,40,41,42,43,44,45,46,47,48,49,50,51,52,53,54,55,56,57,58,59,60,61,62,63,64,65,66,67,68,69,70,71,72,73,74,75,76,77,78,79,80,81,82,83,84,85,86,87,88,89,90,91,92,93,94,95,96,97,98,99,100,101,102,103,104,105,106,107,108,109,110,111,112,113,114,115,116,117,118,119,120,121,122,123,124,125,126,127,128,129,130,131,132,133,134,135,136,137,138,139,140,141,142,143,144,145,146,147,148,149,150,151,152,153,154,155,156,157,158,159,160,161,162,163,164,165,166,167,168,169,170,171,172,173,174,175,176,177,178,179,180,181,182,183,184,185,186,187,188,189,190,191,192,193,194,195,196,197,198,199
0,5.04512357711792,3.47395920753479,2.7223939895629883,2.4570505619049072,2.3048202991485596,2.1050257682800293,1.8369545936584473,1.5293428897857666,1.1999833583831787,0.8520522117614746,0.5388580560684204,0.3064449727535248,0.1602313369512558,0.08741380274295807,0.05150042474269867,0.0309646874666214,0.021621275693178177,0.01600494049489498,0.012736130505800247,0.010564107447862625,0.00911905337125063,0.008004002273082733,0.007104742806404829,0.0064009870402514935,0.005819504614919424,0.005309849977493286,0.004894515965133905,0.004498186055570841,0.004188349936157465,0.00388923566788435,0.0036128293722867966,0.003386837663128972,0.0031725543085485697,0.0029815812595188618,0.0028131643775850534,0.0026586789172142744,0.002505979500710964,0.0023767249658703804,0.0022542683873325586,0.002140129217877984,0.002035426441580057,0.001940190210007131,0.001854727859608829,0.001765681547112763,0.0016935542225837708,0.0016169813461601734,0.0015462838346138597,0.0014842592645436525,0.0014233647380024195,0.0013680750271305442,0.00131508382037282,0.0012658133637160063,0.0012201520148664713,0.0011767192045226693,0.0011336547322571278,0.00109463045373559,0.0010579662630334496,0.001021330594085157,0.0009879445424303412,0.0009565026848576963,0.0009244853281415999,0.0008963565924204886,0.0008690556860528886,0.0008429267327301204,0.0008158977725543082,0.000791277620010078,0.0007677198736928403,0.0007458148174919188,0.0007249090122058988,0.0007035845192149282,0.0006861209403723478,0.0006660572253167629,0.0006481194286607206,0.0006309438031166792,0.0006141971098259091,0.000598335696849972,0.0005829483270645142,0.0005687769153155386,0.0005543645820580423,0.0005405803676694632,0.0005286534433253109,0.0005153559613972902,0.0005021782126277685,0.0004906232352368534,0.0004794783890247345,0.0004680537967942655,0.0004572091856971383,0.0004476202593650669,0.0004376677388790995,0.0004280050052329898,0.00041864303057082,0.00041019488708116114,0.0004008371033705771,0.00039257018943317235,0.0003842856967821717,0.0003763377608265728,0.0003684792318381369,0.0003612948057707399,0.00035380455665290356,0.0003468077920842916,0.00034022037289105356,0.0003336220979690552,0.0003271239111199975,0.00032086376450024545,0.00031469942769035697,0.00030858194804750383,0.00030281467479653656,0.0002976364630740136,0.00029181051650084555,0.00028658381779678166,0.0002814153558574617,0.0002763498341664672,0.00027153128758072853,0.0002666343643795699,0.00026228433125652373,0.00025776171241886914,0.0002534043160267174,0.0002488614700268954,0.0002447097795084119,0.0002409879380138591,0.00023668001813348383,0.00023282198526430875,0.0002289551484864205,0.0002253287093481049,0.00022166558483149856,0.00021810716134496033,0.00021474006643984467,0.00021123296755831689,0.00020785474043805152,0.00020464492263272405,0.00020147512259427458,0.00019844906637445092,0.00019544025417417288,0.000192442093975842,0.00018965559138450772,0.00018677943444345146,0.00018396804807707667,0.00018152034317608923,0.00017869404109660536,0.00017601456784177572,0.00017346102686133236,0.0001710999640636146,0.00016861285257618874,0.00016606254212092608,0.00016373350808862597,0.00016150486771948636,0.00015920285659376532,0.0001570144813740626,0.00015486277698073536,0.0001528000575490296,0.00015078287106007338,0.00014873698819428682,0.00014666459173895419,0.00014481913240160793,0.00014280551113188267,0.00014101469423621893,0.00013907279935665429,0.0001372490805806592,0.00013562542153522372,0.0001338149595540017,0.00013202962873037905,0.0001302797463722527,0.0001286443293793127,0.000127056788187474,0.00012550718383863568,0.00012394654913805425,0.00012237900227773935,0.00012083753244951367,0.00011936364171560854,0.00011784864182118326,0.00011643725156318396,0.000115102986455895,0.00011367847764631733,0.00011227755749132484,0.0001109918302972801,0.00010967325943056494,0.0001084918258129619,0.00010710579226724803,0.00010593263141345233,0.0001046977995429188,0.00010354697587899864,0.00010227447637589648,0.00010114986071130261,0.00010000180191127583,9.883248276310042e-05,9.775766375241801e-05,9.663649689173326e-05,9.557106386637315e-05,9.451169171370566e-05,9.347245941171423e-05,9.249943832401186e-05,9.146780939772725e-05,9.04747867025435e-05,8.950163464760408e-05,8.853841427480802e-05,8.75740879564546e-05,8.669956150697544e-05,8.576160325901583e-05,8.49127463879995e-05,8.396482735406607e-05
1,4.882052421569824,3.254342794418335,2.6483776569366455,2.4064862728118896,2.194068431854248,1.9271697998046875,1.5967763662338257,1.2314348220825195,0.8944665193557739,0.5786046385765076,0.32939964532852173,0.18991467356681824,0.1085347831249237,0.0627313032746315,0.04144197329878807,0.027437342330813408,0.01923706755042076,0.014743095263838768,0.012159875594079494,0.010382270440459251,0.008942286483943462,0.007945978082716465,0.007189256604760885,0.006555179134011269,0.005993210710585117,0.005531796719878912,0.0051306625828146935,0.004743426572531462,0.0044188713654875755,0.004134193994104862,0.003874280722811818,0.0036447218153625727,0.003425160190090537,0.0032251100055873394,0.0030566370114684105,0.0028879542369395494,0.0027284552343189716,0.002596683567389846,0.0024572217371314764,0.002343558007851243,0.002231049118563533,0.0021285032853484154,0.0020305588841438293,0.001938692177645862,0.0018590642139315605,0.0017761382041499019,0.0017065011197701097,0.0016362088499590755,0.0015706433914601803,0.001510653761215508,0.0014564772136509418,0.0014009871520102024,0.0013482773210853338,0.0013023681240156293,0.0012536647263914347,0.0012092781253159046,0.0011679487070068717,0.0011303145438432693,0.0010934417368844151,0.001059521920979023,0.0010266645113006234,0.000993500230833888,0.0009641968063078821,0.0009326845756731927,0.0009067357750609517,0.0008799154311418533,0.0008545353193767369,0.0008300450281240046,0.0008071351912803948,0.0007855503354221582,0.000761315634008497,0.0007426152587868273,0.0007217978127300739,0.0007032027933746576,0.0006844089948572218,0.000666755368001759,0.000650003959890455,0.0006341323023661971,0.000618327409029007,0.0006026431219652295,0.0005878505180589855,0.0005736302700825036,0.000560268119443208,0.0005470191827043891,0.0005349389393813908,0.0005228330846875906,0.0005112782237119973,0.0004995566559955478,0.0004881748172920197,0.00047866764361970127,0.0004670986672863364,0.00045847834553569555,0.00044780343887396157,0.000437937822425738,0.00042869106982834637,0.00042041626875288785,0.000411488173995167,0.00040281188557855785,0.00039478891994804144,0.000387187727028504,0.0003795218945015222,0.00037177608464844525,0.00036436913069337606,0.0003580377087928355,0.0003507249348331243,0.00034410672378726304,0.00033749217982403934,0.0003310974861960858,0.00032514132908545434,0.0003191719006281346,0.00031347255571745336,0.0003078313311561942,0.00030235270969569683,0.00029721713508479297,0.00029200385324656963,0.000286863767541945,0.00028202743851579726,0.0002768874983303249,0.00027228225371800363,0.0002677283773664385,0.00026337557937949896,0.0002589672221802175,0.0002546811301726848,0.0002506729797460139,0.0002467161393724382,0.00024260951613541692,0.0002385762782068923,0.00023499588132835925,0.00023114705982152373,0.0002276222949149087,0.00022410273959394544,0.00022060346964281052,0.00021720000950153917,0.00021396235388237983,0.00021081299928482622,0.00020758406026288867,0.0002046484441962093,0.00020152327488176525,0.00019859963504131883,0.00019561138469725847,0.00019282296125311404,0.00018998216546606272,0.00018736030324362218,0.0001845901715569198,0.00018202897626906633,0.0001794307172531262,0.00017700584430713207,0.00017442805983591825,0.00017205209587700665,0.0001696896943030879,0.0001673206134000793,0.00016506233077961951,0.0001629033504286781,0.0001605788856977597,0.0001584276178618893,0.0001563779660500586,0.00015439082926604897,0.00015235375030897558,0.00015045146574266255,0.00014845455007161945,0.00014653113612439483,0.00014452150207944214,0.00014270099927671254,0.00014088628813624382,0.00013910573034081608,0.00013741834845859557,0.00013568569556809962,0.00013401263277046382,0.00013234301877673715,0.0001306552003370598,0.0001290752406930551,0.00012754715862683952,0.00012597229215316474,0.0001244691520696506,0.00012290326412767172,0.00012147143570473418,0.00012003163283225149,0.00011863872350659221,0.00011725768854375929,0.00011579939018702134,0.00011450894817244262,0.0001131858371081762,0.00011181802983628586,0.00011056526273023337,0.00010923993249889463,0.00010801765165524557,0.00010683345317374915,0.00010557335917837918,0.00010439880134072155,0.00010322205343982205,0.0001021101197693497,0.00010098853817908093,9.983936615753919e-05,9.871157089946792e-05,9.761909313965589e-05,9.661931835580617e-05,9.553841664455831e-05,9.450787911191583e-05,9.348741878056899e-05,9.243120439350605e-05
2,4.825918674468994,3.3135287761688232,2.6547014713287354,2.4506266117095947,2.2645723819732666,2.0368566513061523,1.7503690719604492,1.402161955833435,1.0265915393829346,0.6778639554977417,0.3989325165748596,0.21680814027786255,0.1147628203034401,0.06163870915770531,0.03711693733930588,0.024580467492341995,0.017859376966953278,0.014060459099709988,0.011380470357835293,0.009625534527003765,0.008421976119279861,0.007481236010789871,0.006753747817128897,0.006121149752289057,0.005642435513436794,0.005182240623980761,0.004788019694387913,0.0044454350136220455,0.004147856496274471,0.0038688138592988253,0.0036259980406612158,0.003410306293517351,0.0032198112457990646,0.003029641229659319,0.002854762366041541,0.00269403331913054,0.002559924265369773,0.002432078355923295,0.0023131496272981167,0.002201320603489876,0.002101665595546365,0.0019943099468946457,0.0019107157131657004,0.0018231397261843085,0.0017478748923167586,0.0016737983096390963,0.0016049675177782774,0.0015419542323797941,0.0014826504047960043,0.0014254958368837833,0.0013707135803997517,0.001322379568591714,0.0012771673500537872,0.0012287151766940951,0.001189229660667479,0.0011470618192106485,0.0011086373124271631,0.0010731638176366687,0.0010365942725911736,0.0010045996168628335,0.0009715101914480329,0.0009436759282834828,0.000914783391635865,0.0008872933103702962,0.000859515683259815,0.0008359192870557308,0.0008107423782348633,0.0007881562341935933,0.000766157463658601,0.0007447099778801203,0.0007249256013892591,0.0007046546670608222,0.0006890404038131237,0.0006689555593766272,0.0006524731870740652,0.00063672149553895,0.0006199770141392946,0.0006039963336661458,0.0005892306799069047,0.000574557576328516,0.0005610171938315034,0.000547254690900445,0.0005356993642635643,0.0005223432090133429,0.0005102016148157418,0.0004987181164324284,0.0004873366269748658,0.0004764017357956618,0.00046613035374321043,0.0004562556277960539,0.0004466937680263072,0.00043768767500296235,0.0004276807012502104,0.0004187335434835404,0.00041029523708857596,0.0004023172368761152,0.00039349409053102136,0.00038571577169932425,0.0003781308769248426,0.0003701781970448792,0.00036345727858133614,0.0003566738741938025,0.00034950769622810185,0.000342558923875913,0.00033602124312892556,0.00033007204183377326,0.00032359821489080787,0.00031772610964253545,0.0003122195485047996,0.0003062316682189703,0.00030087202321738005,0.0002953562361653894,0.00029016099870204926,0.00028503616340458393,0.0002802448580041528,0.0002752839354798198,0.0002707220264710486,0.00026582504506222904,0.0002616289129946381,0.00025691307382658124,0.00025266665033996105,0.00024860381381586194,0.0002444931014906615,0.00024065763864200562,0.00023673384566791356,0.00023313466226682067,0.00022907156380824745,0.00022557175543624908,0.00022205589630175382,0.00021845527226105332,0.00021498619753401726,0.00021169445244595408,0.00020843654056079686,0.00020545293227769434,0.0002022004482569173,0.00019931541464757174,0.00019615926430560648,0.0001932174782268703,0.00019041866471525282,0.00018763415573630482,0.00018499176076147705,0.00018232410366181284,0.0001796924480004236,0.00017721719632390887,0.0001746882771840319,0.00017218127322848886,0.0001698681153357029,0.0001674652739893645,0.00016517813492100686,0.0001628553873160854,0.0001605420548003167,0.00015844790323171765,0.00015623593935742974,0.0001541795500088483,0.0001520819350844249,0.00015006294415798038,0.00014803194790147245,0.00014618552813772112,0.0001441918866476044,0.00014233950059860945,0.0001405221555614844,0.00013872150157112628,0.00013698279508389533,0.00013524407404474914,0.00013353017857298255,0.00013188926095608622,0.00013034942094236612,0.00012869278725702316,0.00012709545262623578,0.0001255771639989689,0.0001240423007402569,0.0001226215244969353,0.00012101397442165762,0.00011957925016758963,0.00011819269275292754,0.00011683384946081787,0.00011546024325070903,0.00011406801786506549,0.00011269897368038073,0.00011138978152303025,0.00011008858564309776,0.00010883816867135465,0.00010765507613541558,0.00010640561959007755,0.0001052656807587482,0.0001041318173520267,0.0001028596016112715,0.00010163717524847016,0.00010046772513305768,9.937235154211521e-05,9.828180918702856e-05,9.720904199639335e-05,9.611491987016052e-05,9.509141818853095e-05,9.401451097801328e-05,9.300314559368417e-05,9.203592344420031e-05,9.100442548515275e-05,9.007679182104766e-05,8.911742770578712e-05
3,4.363445281982422,3.232225179672241,2.54257869720459,2.334149122238159,2.0779027938842773,1.7815872430801392,1.4057401418685913,1.0620170831680298,0.7418396472930908,0.4868100583553314,0.2798177897930145,0.1519765704870224,0.08318005502223969,0.048247214406728745,0.02993449941277504,0.02135382778942585,0.015531160868704319,0.012448851019144058,0.010348094627261162,0.008850786834955215,0.007965538650751114,0.007032119669020176,0.006398855708539486,0.005819437559694052,0.005353719927370548,0.004957829136401415,0.004607737995684147,0.004261851776391268,0.003987834323197603,0.0037064016796648502,0.0034831275697797537,0.003279987256973982,0.0030897969845682383,0.002914522308856249,0.0027508074417710304,0.0026066938880831003,0.0024831206537783146,0.002360648475587368,0.002237245673313737,0.0021340397652238607,0.0020272661931812763,0.0019361070590093732,0.001852164277806878,0.0017750804545357823,0.0016937045147642493,0.001624688389711082,0.0015612577553838491,0.0014975183876231313,0.0014403106179088354,0.001383952796459198,0.001337119028903544,0.0012875120155513287,0.001241326448507607,0.001195791526697576,0.0011554646771401167,0.0011151223443448544,0.0010782995959743857,0.0010409299284219742,0.0010089834686368704,0.0009766416624188423,0.0009452534141018987,0.0009155136649496853,0.0008888044976629317,0.0008607588824816048,0.0008370892028324306,0.0008118106634356081,0.0007874059374444187,0.0007656782399863005,0.0007450793054886162,0.0007234904915094376,0.0007041884236969054,0.0006859987624920905,0.000666990177705884,0.0006506449426524341,0.000634104129858315,0.0006174582522362471,0.0006026533083058894,0.0005873676855117083,0.000572668039239943,0.0005591647350229323,0.0005457472871057689,0.0005325624370016158,0.0005207082140259445,0.0005085553275421262,0.0004968143184669316,0.00048579456051811576,0.0004747243074234575,0.00046410743379965425,0.00045397187932394445,0.00044430920388549566,0.00043468494550324976,0.00042612184188328683,0.00041678865090943873,0.00040824449388310313,0.0003996207087766379,0.0003912140382453799,0.00038374107680283487,0.00037606843397952616,0.0003681804519146681,0.0003610528656281531,0.00035426171962171793,0.00034694152418524027,0.000340231170412153,0.00033371595782227814,0.00032720831222832203,0.00032100771204568446,0.00031514078727923334,0.00030925089959055185,0.00030360071104951203,0.0002983164740726352,0.0002930515620391816,0.0002874067286029458,0.0002824201073963195,0.00027756646159105003,0.00027275487082079053,0.00026797340251505375,0.0002633134135976434,0.0002588283969089389,0.0002546840114519,0.00025051250122487545,0.0002462176198605448,0.00024206179659813643,0.00023831127327866852,0.00023435422917827964,0.000230473029660061,0.0002268492098664865,0.00022330212232191116,0.00021987015497870743,0.00021643548097927123,0.00021308187569957227,0.0002097373071592301,0.00020658197172451764,0.00020352144201751798,0.00020034862973261625,0.00019735716341529042,0.000194441425264813,0.0001914703316288069,0.00018867950711864978,0.0001860509510152042,0.0001833837159210816,0.00018060732691083103,0.0001779649464879185,0.0001754243712639436,0.00017298398597631603,0.00017050131282303482,0.00016815905109979212,0.0001658218534430489,0.00016348353528883308,0.00016136978229042143,0.00015905892360024154,0.0001568756706546992,0.00015476041880901903,0.00015283456014003605,0.0001506834087194875,0.00014863059914205223,0.0001466802932554856,0.00014477661170531064,0.00014283860218711197,0.00014112473581917584,0.00013923748338129371,0.00013752770610153675,0.00013572814350482076,0.00013398598821368068,0.00013226852752268314,0.00013058262993581593,0.0001289908104809001,0.00012729539594147354,0.00012581558257807046,0.00012426625471562147,0.00012268905993551016,0.00012124633940402418,0.00011970363993896171,0.00011827098933281377,0.00011690842075040564,0.00011547029134817421,0.0001141039829235524,0.00011282184277661145,0.00011144547170260921,0.00011016415373887867,0.00010884147195611149,0.00010758428106782958,0.00010644159920047969,0.0001051746221492067,0.00010399663005955517,0.00010279379057465121,0.00010159550583921373,0.00010043018846772611,9.928653889801353e-05,9.81630219030194e-05,9.714393672766164e-05,9.601587225915864e-05,9.497485007159412e-05,9.392597712576389e-05,9.289736044593155e-05,9.19131634873338e-05,9.093408880289644e-05,8.994658128358424e-05,8.89615694177337e-05,8.799794159131125e-05,8.710037946002558e-05
4,5.460361957550049,3.707814931869507,2.8683793544769287,2.58834171295166,2.4449751377105713,2.272411823272705,2.079179048538208,1.828303575515747,1.5459169149398804,1.2280980348587036,0.9431571960449219,0.6470345854759216,0.4099619686603546,0.25421208143234253,0.1550280749797821,0.08747143298387527,0.054163359105587006,0.03666327893733978,0.026854325085878372,0.01877986639738083,0.014431174844503403,0.011926189996302128,0.010087377391755581,0.008901671506464481,0.007901417091488838,0.007118356414139271,0.006527779158204794,0.00598445488139987,0.005518382415175438,0.005132080987095833,0.004761707969009876,0.0044394973665475845,0.004165652673691511,0.003897268557921052,0.003671145299449563,0.003462862689048052,0.0032509753946214914,0.003084879834204912,0.0029097425285726786,0.0027714932803064585,0.0026263142935931683,0.00249768840149045,0.002390635432675481,0.002277549123391509,0.0021654346492141485,0.002078356221318245,0.0019855601713061333,0.001903437776491046,0.0018200835911557078,0.0017490418395027518,0.0016780165024101734,0.0016157260397449136,0.0015569040551781654,0.00149466039147228,0.001440490479581058,0.001391410594806075,0.001343173673376441,0.0012971136020496488,0.0012534516863524914,0.001209070673212409,0.001172446645796299,0.0011316662421450019,0.0010985751869156957,0.0010627484880387783,0.0010294822277501225,0.0009995640721172094,0.0009684879332780838,0.0009405711316503584,0.0009127019438892603,0.0008873238693922758,0.0008611130760982633,0.0008369646966457367,0.0008148119086399674,0.0007925071404315531,0.0007706706528551877,0.00075256492709741,0.0007323193131014705,0.0007128288270905614,0.000695050461217761,0.0006773003260605037,0.0006608460680581629,0.0006446216139011085,0.0006288350559771061,0.0006140085752122104,0.0005990760982967913,0.0005863697733730078,0.0005718267057090998,0.0005590306245721877,0.0005464610294438899,0.0005340541247278452,0.000522544898558408,0.0005112251965329051,0.0004997571231797338,0.0004887657705694437,0.0004788179649040103,0.0004688396293204278,0.0004596032667905092,0.00044939774670638144,0.0004408748063724488,0.000431940658017993,0.0004229295300319791,0.0004152584879193455,0.00040731721674092114,0.0003992417186964303,0.000391324982047081,0.00038380108890123665,0.0003766426525544375,0.00036975243710912764,0.000363108585588634,0.00035645902971737087,0.00035021454095840454,0.00034343983861617744,0.0003373248619027436,0.00033134358818642795,0.00032577462843619287,0.0003199873899575323,0.0003143420326523483,0.0003089438541792333,0.00030387318111024797,0.00029890029691159725,0.000293599849101156,0.00028866747743450105,0.00028410038794390857,0.0002794662432279438,0.0002751992433331907,0.0002702849742490798,0.000266250193817541,0.00026199285639449954,0.00025757751427590847,0.0002536907559260726,0.0002496862143743783,0.0002456337388139218,0.00024206805392168462,0.00023845724354032427,0.0002348035923205316,0.00023109957692213356,0.00022767551126889884,0.000224188799620606,0.0002209241210948676,0.00021762347023468465,0.0002144799509551376,0.00021134533744771034,0.00020861449593212456,0.0002053782664006576,0.0002024228306254372,0.00019963522208854556,0.00019704581063706428,0.00019414015696384013,0.00019142733071930707,0.00018878650735132396,0.00018609955441206694,0.00018376325897406787,0.00018114018894266337,0.00017879492952488363,0.0001762972242431715,0.00017406127881258726,0.00017160948482342064,0.0001695516548352316,0.00016719325503800064,0.0001649552577873692,0.0001629187900107354,0.000160739102284424,0.00015862083819229156,0.00015666878607589751,0.00015474030806217343,0.00015279167564585805,0.00015093227557372302,0.00014900295354891568,0.00014721394109074026,0.00014528089377563447,0.0001436842867406085,0.00014172776718623936,0.0001400383043801412,0.00013834885612595826,0.00013667208258993924,0.00013497985491994768,0.0001334222761215642,0.00013178492372389883,0.00013026734814047813,0.00012875886750407517,0.00012726486602332443,0.0001257316762348637,0.00012439161946531385,0.0001229280896950513,0.00012150334077887237,0.0001200585684273392,0.00011871228343807161,0.0001173853306681849,0.00011612982052611187,0.00011475733481347561,0.00011348637781338766,0.00011220244050491601,0.00011093340435763821,0.0001097606509574689,0.00010857728193514049,0.00010741763981059194,0.00010624241986079141,0.00010510760330362245,0.0001039101553033106,0.0001028163023875095
5,5.108743667602539,3.266540050506592,2.601259231567383,2.458181142807007,2.2730000019073486,2.058168888092041,1.7966079711914062,1.4789646863937378,1.1396995782852173,0.7828185558319092,0.5014342069625854,0.2767270803451538,0.15600521862506866,0.08541332185268402,0.05073385685682297,0.03486497327685356,0.023048412054777145,0.016844581812620163,0.013191450387239456,0.011068608611822128,0.009514667093753815,0.008266974240541458,0.007410024758428335,0.006697336211800575,0.00617187051102519,0.0055915419943630695,0.005147196818143129,0.004764203447848558,0.004440960008651018,0.004169444553554058,0.0038980632089078426,0.003629265120252967,0.003415777115151286,0.0032112470362335443,0.0030406597070395947,0.0028695017099380493,0.002714672591537237,0.002576479921117425,0.0024470025673508644,0.0023316589649766684,0.0022239636164158583,0.0021223840303719044,0.002026011236011982,0.0019309277413412929,0.0018479533027857542,0.0017723172204568982,0.0016960297944024205,0.0016278688563033938,0.0015616306336596608,0.0015000582206994295,0.0014443689724430442,0.0013894109288230538,0.0013368972577154636,0.001288544270209968,0.0012415382079780102,0.0011993469670414925,0.0011599151184782386,0.0011170784709975123,0.001081713940948248,0.001045042765326798,0.001012187683954835,0.0009785582078620791,0.000947080843616277,0.0009200322674587369,0.0008901593391783535,0.00086548354011029,0.0008385372348129749,0.0008140075951814651,0.0007907548570074141,0.0007704105228185654,0.0007472523138858378,0.0007270543719641864,0.0007069768034853041,0.0006894179969094694,0.0006697610369883478,0.0006526616052724421,0.0006352722411975265,0.0006203968659974635,0.0006049025687389076,0.0005904658464714885,0.0005750752170570195,0.0005615315167233348,0.0005474119097925723,0.0005344895180314779,0.0005218255682848394,0.0005101694841869175,0.000498554902151227,0.0004864586517214775,0.00047622606507502496,0.00046509518870152533,0.00045530949137173593,0.00044571197940967977,0.0004362750332802534,0.0004271318612154573,0.0004172406333964318,0.00040862965397536755,0.0004005618393421173,0.0003920716990251094,0.00038441960350610316,0.00037658095243386924,0.00036908488254994154,0.0003619267081376165,0.00035567651502788067,0.0003481107414700091,0.0003412345249671489,0.00033466986496932805,0.00032846370595507324,0.00032226715120486915,0.0003163769142702222,0.00031049249810166657,0.0003047637001145631,0.00029923953115940094,0.0002939097466878593,0.00028879562160000205,0.0002835100458469242,0.0002788261917885393,0.000274033984169364,0.00026951872860081494,0.00026468245778232813,0.0002601774758659303,0.0002558161213528365,0.00025165858096443117,0.0002473978674970567,0.00024342004326172173,0.00023921357933431864,0.00023557677923236042,0.00023192875960376114,0.00022810221707914025,0.00022460229229182005,0.00022095821623224765,0.00021732464665547013,0.0002139765419997275,0.0002108434127876535,0.00020744894572999328,0.00020435015903785825,0.00020122267596889287,0.00019831217650789768,0.00019531337602529675,0.00019241077825427055,0.0001897979382192716,0.0001868566614575684,0.00018431096395943314,0.00018142124463338405,0.00017890060553327203,0.00017634930554777384,0.0001737349375616759,0.00017152099462691694,0.00016895261069294065,0.00016659720859024674,0.0001643310533836484,0.0001620216207811609,0.00015972164692357183,0.00015768446610309184,0.00015543166955467314,0.0001534846960566938,0.00015148930833674967,0.0001492946030339226,0.00014737505989614874,0.00014536335947923362,0.00014345248928293586,0.00014179616118781269,0.0001397088635712862,0.00013807500363327563,0.00013624591520056129,0.00013451343693304807,0.00013279651466291398,0.00013102893717586994,0.00012944980699103326,0.0001277917908737436,0.00012622687791008502,0.00012473147944547236,0.0001230675115948543,0.00012162620259914547,0.00012021409202134237,0.00011869316949741915,0.00011728812387445942,0.00011590019857976586,0.00011442894174251705,0.00011303243809379637,0.00011184933828189969,0.00011050635657738894,0.00010915124585153535,0.00010793627734528854,0.00010662667045835406,0.00010547214333200827,0.00010429965914227068,0.0001030504863592796,0.00010190600005444139,0.0001007197133731097,9.970795508706942e-05,9.848483750829473e-05,9.73883579717949e-05,9.633643639972433e-05,9.53377821133472e-05,9.421067079529166e-05,9.318109368905425e-05,9.20953752938658e-05,9.112372936215252e-05,9.023198072100058e-05,8.917232480598614e-05
6,5.384205341339111,3.3790102005004883,2.760423421859741,2.466508150100708,2.3411333560943604,2.153585195541382,1.9154243469238281,1.6350629329681396,1.3207634687423706,0.988259494304657,0.695293664932251,0.44093358516693115,0.2558203935623169,0.141341894865036,0.08442029356956482,0.052616018801927567,0.034153249114751816,0.024035561829805374,0.01846921816468239,0.014441652223467827,0.011850578710436821,0.010154358111321926,0.00884892139583826,0.007887315936386585,0.007118795532733202,0.006464890204370022,0.005960831418633461,0.005455461330711842,0.00504039553925395,0.0046858880668878555,0.00436401879414916,0.004053928889334202,0.0038106353022158146,0.003570142900571227,0.0033526939805597067,0.003159474115818739,0.002975120209157467,0.0028229174204170704,0.0026751337572932243,0.002538590459153056,0.002404388738796115,0.0022950884886085987,0.002186059020459652,0.0020878987852483988,0.0019884929060935974,0.001904674107208848,0.0018205371452495456,0.0017452037427574396,0.0016760723665356636,0.0016104168025776744,0.001542181009426713,0.0014829712454229593,0.0014284084318205714,0.0013731534127146006,0.0013266035821288824,0.0012788797030225396,0.0012316867941990495,0.0011873834300786257,0.0011492770863696933,0.0011086872546002269,0.0010740688303485513,0.0010394203709438443,0.0010054610902443528,0.0009742627735249698,0.0009465438779443502,0.0009171157144010067,0.0008906354196369648,0.0008627712959423661,0.0008375720353797078,0.0008148972992785275,0.0007915669120848179,0.0007689040503464639,0.0007490374846383929,0.0007302622543647885,0.0007092778687365353,0.000690168235450983,0.0006732924957759678,0.0006562472553923726,0.0006398249533958733,0.0006239921203814447,0.0006090347305871546,0.0005949391634203494,0.0005803746753372252,0.0005665332428179681,0.0005537980468943715,0.000540655164513737,0.0005284792277961969,0.0005164120811969042,0.0005052557680755854,0.0004941378138028085,0.00048397164209745824,0.00047329036169685423,0.0004636484372895211,0.0004537629138212651,0.00044458411866798997,0.0004350508388597518,0.0004262078437022865,0.00041774383862502873,0.0004089541616849601,0.0004012312274426222,0.0003937005531042814,0.0003856134426314384,0.0003788387111853808,0.00037108093965798616,0.00036374872433952987,0.0003573986468836665,0.0003504850610624999,0.0003443406312726438,0.00033771374728530645,0.00033200180041603744,0.0003260916273575276,0.0003198008344043046,0.0003143899666611105,0.00030884495936334133,0.0003034544351976365,0.00029802974313497543,0.0002930868067778647,0.0002880854008253664,0.00028310841298662126,0.0002784632670227438,0.0002737362519837916,0.00026926115970127285,0.00026497451472096145,0.00026084089768119156,0.0002562624868005514,0.0002523805305827409,0.0002482882409822196,0.00024429435143247247,0.00024053026572801173,0.00023673055693507195,0.00023320097534451634,0.0002295617596246302,0.00022600358352065086,0.0002226772776339203,0.00021907530026510358,0.00021598555031232536,0.00021291841403581202,0.00020978183601982892,0.00020661191956605762,0.0002036095829680562,0.00020080804824829102,0.0001977617503143847,0.00019505743694026023,0.00019246274314355105,0.00018955839914269745,0.00018693291349336505,0.00018425843154545873,0.00018187340174335986,0.0001793787523638457,0.0001769285008776933,0.00017446925630792975,0.0001721249136608094,0.00016981232329271734,0.00016760001017246395,0.00016538903582841158,0.00016324786702170968,0.00016108661657199264,0.00015904435713309795,0.00015689463180024177,0.00015497073763981462,0.00015302098472602665,0.0001509810535935685,0.00014909420860931277,0.0001471557916374877,0.00014541932614520192,0.00014358104090206325,0.0001418431638740003,0.00014009865117259324,0.0001383215858368203,0.00013662604033015668,0.00013506102550309151,0.00013335321273189038,0.00013179740926716477,0.00013022533676121384,0.00012866829638369381,0.0001271221408387646,0.00012566248187795281,0.00012426613830029964,0.00012279668590053916,0.00012136915029259399,0.00011992370127700269,0.00011856707715196535,0.00011722397903213277,0.00011582554725464433,0.00011460895620984957,0.00011319918849039823,0.00011200687004020438,0.00011079631076427177,0.00010953610035357997,0.00010828692029463127,0.00010711915820138529,0.00010596985521260649,0.00010479931370355189,0.00010367483628215268,0.00010261270654154941,0.00010145528358407319,0.00010032887803390622,9.925889753503725e-05,9.823843720369041e-05,9.720087109599262e-05
