,0,1,2,3,4,5,6,7,8,9,10,11,12,13,14,15,16,17,18,19,20,21,22,23,24,25,26,27,28,29,30,31,32,33,34,35,36,37,38,39,40,41,42,43,44,45,46,47,48,49,50,51,52,53,54,55,56,57,58,59,60,61,62,63,64,65,66,67,68,69,70,71,72,73,74,75,76,77,78,79,80,81,82,83,84,85,86,87,88,89,90,91,92,93,94,95,96,97,98,99,100,101,102,103,104,105,106,107,108,109,110,111,112,113,114,115,116,117,118,119,120,121,122,123,124,125,126,127,128,129,130,131,132,133,134,135,136,137,138,139,140,141,142,143,144,145,146,147,148,149,150,151,152,153,154,155,156,157,158,159,160,161,162,163,164,165,166,167,168,169,170,171,172,173,174,175,176,177,178,179,180,181,182,183,184,185,186,187,188,189,190,191,192,193,194,195,196,197,198,199
0,5.000507354736328,2.8690037727355957,2.605950355529785,2.473698377609253,2.307237386703491,2.0790653228759766,1.7821508646011353,1.4127272367477417,1.024742603302002,0.6401060819625854,0.3964115381240845,0.20098114013671875,0.10166298598051071,0.061869412660598755,0.03659919649362564,0.024860193952918053,0.018031783401966095,0.01372844073921442,0.011134875938296318,0.009518458507955074,0.00825747661292553,0.007284198421984911,0.006470154505223036,0.005819844081997871,0.005232707597315311,0.0047449287958443165,0.004334600176662207,0.004000615328550339,0.0036647918168455362,0.003392196958884597,0.0031620871741324663,0.002931355033069849,0.002739713992923498,0.002555293031036854,0.002386994194239378,0.0022452049888670444,0.0021194685250520706,0.001998051768168807,0.0018886064644902945,0.0017764432122930884,0.0016860709292814136,0.0016035797307267785,0.0015250116121023893,0.001446572015993297,0.0013793936232104897,0.0013164804549887776,0.001257180469110608,0.0012020075228065252,0.0011500009568408132,0.001098817796446383,0.0010533960303291678,0.0010097523918375373,0.0009698703652247787,0.0009345996659249067,0.0008976752869784832,0.0008636725251562893,0.0008281343034468591,0.0007965710246935487,0.0007673340733163059,0.0007415046566165984,0.0007184884743764997,0.0006940732710063457,0.0006682467646896839,0.0006466037011705339,0.000626331486273557,0.0006062912871129811,0.0005881207762286067,0.0005683002527803183,0.0005503337015397847,0.0005332292057573795,0.0005176325212232769,0.000502434151712805,0.0004877850296907127,0.000474367116112262,0.0004610888136085123,0.00044754534610547125,0.0004356179269962013,0.0004226313903927803,0.0004110738227609545,0.0004012250865343958,0.0003902700264006853,0.0003805400338023901,0.00037117584724910557,0.0003606549871619791,0.00035177674726583064,0.00034318084362894297,0.0003346347657497972,0.0003262158716097474,0.00031883292831480503,0.00031087014940567315,0.0003037121205125004,0.00029676579288206995,0.00028942787321284413,0.00028300206759013236,0.0002763044321909547,0.00027024431619793177,0.0002643829211592674,0.00025818528956733644,0.00025240000104531646,0.00024718159693293273,0.00024178855528589338,0.00023637674166820943,0.00023156854149419814,0.00022665831784252077,0.0002221549511887133,0.00021730634034611285,0.00021257612388581038,0.00020853073510807008,0.0002042424021055922,0.0001999404194066301,0.00019622976833488792,0.00019249747856520116,0.00018853617075365037,0.0001848489191615954,0.0001810708927223459,0.00017763857613317668,0.0001742702879710123,0.00017101115372497588,0.00016766889893915504,0.0001645734446356073,0.00016154981858562678,0.0001586539437994361,0.00015577823796775192,0.0001527139829704538,0.00015000856365077198,0.00014742609346285462,0.00014477147487923503,0.00014213698159437627,0.0001397061423631385,0.00013721191498916596,0.0001348941441392526,0.00013275627861730754,0.0001301785378018394,0.00012801623961422592,0.00012570380931720138,0.0001235574163729325,0.0001215237207361497,0.00011963779979851097,0.00011761096538975835,0.00011567711044335738,0.00011359845666447654,0.00011187777272425592,0.00011007184366462752,0.00010830708924913779,0.00010650763579178602,0.00010492924047866836,0.0001031432839226909,0.00010146260319743305,9.995352593250573e-05,9.845339809544384e-05,9.683913958724588e-05,9.523603512207046e-05,9.391615458298475e-05,9.248057176591828e-05,9.093795961234719e-05,8.967477333499119e-05,8.818979404168203e-05,8.691974653629586e-05,8.560842252336442e-05,8.437474025413394e-05,8.30561330076307e-05,8.198517753044143e-05,8.057048398768529e-05,7.945943070808426e-05,7.834238931536674e-05,7.719491986790672e-05,7.62796335038729e-05,7.501198706449941e-05,7.395432476187125e-05,7.288976485142484e-05,7.181159890023991e-05,7.084223761921749e-05,6.981140177231282e-05,6.892989040352404e-05,6.79701697663404e-05,6.699093501083553e-05,6.606183887924999e-05,6.516004941659048e-05,6.418536213459447e-05,6.338539969874546e-05,6.245484109967947e-05,6.166073580970988e-05,6.0802532971138135e-05,5.9994774346705526e-05,5.920990588492714e-05,5.8389643527334556e-05,5.7595610996941105e-05,5.67828792554792e-05,5.6091201258823276e-05,5.536674871109426e-05,5.460064858198166e-05,5.392373350332491e-05,5.324404628481716e-05,5.24952556588687e-05,5.184309702599421e-05,5.119115303386934e-05,5.051312837167643e-05,4.984552288078703e-05,4.924240420223214e-05,4.860033004661091e-05
1,3.952376127243042,2.7001447677612305,2.518655776977539,2.3341104984283447,2.0939764976501465,1.744265079498291,1.3698785305023193,0.9615539312362671,0.5689536929130554,0.3163210153579712,0.14962373673915863,0.07419444620609283,0.04190951958298683,0.025150390341877937,0.017752690240740776,0.013448218815028667,0.011106600053608418,0.009379081428050995,0.008191856555640697,0.0071434625424444675,0.006259530782699585,0.005633131600916386,0.0050409394316375256,0.00454346090555191,0.004143726546317339,0.003809095360338688,0.003484309185296297,0.0032347787637263536,0.0029754203278571367,0.002747057005763054,0.0025927647948265076,0.0023959199897944927,0.002238661516457796,0.0020975505467504263,0.0019848644733428955,0.0018605769146233797,0.0017463575350120664,0.00164904969278723,0.0015639018965885043,0.0014824314275756478,0.0014059336390346289,0.0013352882815524936,0.001274796319194138,0.0012117320438846946,0.0011555542005226016,0.0011053347261622548,0.001057200599461794,0.0010103958193212748,0.0009649756248109043,0.0009247662965208292,0.0008892301702871919,0.0008557334658689797,0.0008192071109078825,0.000789139186963439,0.0007618179079145193,0.000730929255951196,0.0007034610607661307,0.0006800300907343626,0.0006545830401591957,0.0006313815829344094,0.0006120550679042935,0.000590339011978358,0.0005703242495656013,0.0005532402428798378,0.0005336907343007624,0.0005177719867788255,0.0005008765147067606,0.00048497208626940846,0.0004709999484475702,0.0004563896218314767,0.00044331655954010785,0.0004297776031307876,0.0004187625308986753,0.0004064269596710801,0.0003951864782720804,0.00038314133416861296,0.00037255993811413646,0.0003631094587035477,0.000353135954355821,0.0003439777356106788,0.0003349713806528598,0.00032616325188428164,0.00031744648003950715,0.0003095331776421517,0.0003018070128746331,0.00029519523377530277,0.00028798796120099723,0.00027981403400190175,0.0002739404153544456,0.00026733477716334164,0.0002606246853247285,0.00025508555700071156,0.0002492307103239,0.00024324872356373817,0.00023717808653600514,0.00023184703604783863,0.00022690629702992737,0.0002220625610789284,0.00021790376922581345,0.00021219177870079875,0.00020827859407290816,0.00020323165517766029,0.00019892565615009516,0.00019453249115031213,0.00019077306205872446,0.00018674362218007445,0.00018284731777384877,0.0001794665731722489,0.00017565769667271525,0.00017187582852784544,0.00016883021453395486,0.000165781588293612,0.00016189295274671167,0.00015902846644166857,0.00015596051525790244,0.00015280542720574886,0.00015027729386929423,0.00014737609308212996,0.00014414993347600102,0.00014153102529235184,0.0001391792466165498,0.0001364740019198507,0.00013390893582254648,0.00013140574446879327,0.00012912714737467468,0.00012681272346526384,0.00012447820336092263,0.0001225569867528975,0.0001203716456075199,0.0001180795588879846,0.00011598836863413453,0.00011414014443289489,0.0001121454406529665,0.00011044201528420672,0.00010833712440216914,0.0001064352982211858,0.00010470302368048579,0.00010279914567945525,0.00010129106522072107,9.962470358004794e-05,9.815509838517755e-05,9.648197737988085e-05,9.490540833212435e-05,9.341281111119315e-05,9.173165744869038e-05,9.034439426613972e-05,8.882190741132945e-05,8.739383338252082e-05,8.601088484283537e-05,8.46202892716974e-05,8.327644172823057e-05,8.210049418266863e-05,8.081830310402438e-05,7.959812501212582e-05,7.826868386473507e-05,7.72460552980192e-05,7.597167132189497e-05,7.47802623664029e-05,7.370817911578342e-05,7.255869422806427e-05,7.148074655560777e-05,7.048184488667175e-05,6.949804810574278e-05,6.841099093435332e-05,6.738111551385373e-05,6.632515578530729e-05,6.54715986456722e-05,6.449193460866809e-05,6.35351098026149e-05,6.26465625828132e-05,6.179036427056417e-05,6.094977288739756e-05,6.0048740124329925e-05,5.921538104303181e-05,5.842816608492285e-05,5.758714905823581e-05,5.67446077184286e-05,5.595435868599452e-05,5.520845661521889e-05,5.4524509323528036e-05,5.3707361075794324e-05,5.2981864428147674e-05,5.226294160820544e-05,5.1539460400817916e-05,5.08517878188286e-05,5.024412530474365e-05,4.956381962983869e-05,4.884274676442146e-05,4.8198729928117245e-05,4.755823465529829e-05,4.6972021664259955e-05,4.6329721953952685e-05,4.571433237288147e-05,4.509990321821533e-05,4.4545839045895264e-05,4.394672214402817e-05,4.339941369835287e-05,4.283189628040418e-05,4.229010664857924e-05,4.1742932808119804e-05
2,4.524543762207031,2.8214285373687744,2.5940358638763428,2.4408421516418457,2.2374608516693115,1.9361650943756104,1.5938763618469238,1.1270211935043335,0.6940822601318359,0.412555456161499,0.18665465712547302,0.08331514894962311,0.04284803196787834,0.025919798761606216,0.018480153754353523,0.014230652712285519,0.011609061621129513,0.00977691262960434,0.008399911224842072,0.007260660175234079,0.006415111944079399,0.005685134790837765,0.005133215803653002,0.004656565375626087,0.004157478455454111,0.003808533074334264,0.0034626335836946964,0.0032217619009315968,0.00295975967310369,0.002758452668786049,0.0025445884093642235,0.0023756420705467463,0.002206232165917754,0.0020799152553081512,0.0019557105842977762,0.001830388675443828,0.001732487347908318,0.0016280933050438762,0.0015386960003525019,0.0014607803896069527,0.0013865578221157193,0.0013113856548443437,0.001248196349479258,0.0011878934456035495,0.0011307746171951294,0.0010819899616762996,0.0010333661921322346,0.0009876051917672157,0.0009468253701925278,0.0009090628591366112,0.0008713436545804143,0.0008336929022334516,0.0008016375359147787,0.0007673576474189758,0.000741096562705934,0.0007131866295821965,0.0006859974237158895,0.0006629894487559795,0.0006385836168192327,0.0006147355306893587,0.0005956112290732563,0.000574693491216749,0.0005551411304622889,0.0005365257384255528,0.0005191356758587062,0.0005033977795392275,0.00048766660620458424,0.00047330037341453135,0.00045821332605555654,0.00044507236452773213,0.00043152246507816017,0.00041923546814359725,0.0004069334245286882,0.00039533921517431736,0.0003853360831271857,0.00037306605372577906,0.0003632974112406373,0.00035285644116811454,0.0003435708349570632,0.0003348999307490885,0.00032540058600716293,0.0003175750025548041,0.00030856800731271505,0.0003016990958712995,0.0002934801741503179,0.00028587706037797034,0.00027904065791517496,0.0002728099643718451,0.0002662731276359409,0.0002596853591967374,0.00025356406695209444,0.00024772973847575486,0.00024217805184889585,0.00023655995028093457,0.00023049466835800558,0.000225974406930618,0.00022075547894928604,0.0002156761329388246,0.0002110446512233466,0.00020689575467258692,0.00020229208166711032,0.0001981662935577333,0.00019356141274329275,0.00018981310131493956,0.00018597733287606388,0.00018225547682959586,0.00017864508845377713,0.00017454464978072792,0.0001713150122668594,0.0001679094129940495,0.00016438539023511112,0.0001612330524949357,0.00015823692956473678,0.00015491033263970166,0.00015216832980513573,0.00014937491505406797,0.00014656658458989114,0.00014365528477355838,0.0001409577816957608,0.00013851233234163374,0.0001361229078611359,0.00013354135444387794,0.0001310305524384603,0.00012875061656814069,0.0001261832658201456,0.0001240127021446824,0.00012177826283732429,0.00011978163092862815,0.00011765494127757847,0.00011570657079573721,0.00011384022218408063,0.00011174788960488513,0.00010977750207530335,0.00010794853733386844,0.00010629158350639045,0.00010455446317791939,0.00010264345473842695,0.0001009775951388292,9.939503070199862e-05,9.779995889402926e-05,9.622894867789e-05,9.460946603212506e-05,9.311333997175097e-05,9.150156256509945e-05,9.010847861645743e-05,8.869002340361476e-05,8.736192103242502e-05,8.597808482591063e-05,8.477087249048054e-05,8.341792999999598e-05,8.198444993468001e-05,8.079103281488642e-05,7.955956243677065e-05,7.834103598725051e-05,7.718549750279635e-05,7.610573811689392e-05,7.48995880712755e-05,7.376150460913777e-05,7.275143434526399e-05,7.168831507442519e-05,7.05293205101043e-05,6.951814430067316e-05,6.853670493001118e-05,6.756434595445171e-05,6.660228973487392e-05,6.563511124113575e-05,6.472643872257322e-05,6.381542334565893e-05,6.2868173699826e-05,6.196666072355583e-05,6.118973396951333e-05,6.029456926626153e-05,5.943257929175161e-05,5.865413913852535e-05,5.780084029538557e-05,5.69849980820436e-05,5.624441837426275e-05,5.557253462029621e-05,5.4692471167072654e-05,5.397542190621607e-05,5.32628437213134e-05,5.253176641417667e-05,5.1989987696288154e-05,5.112557846587151e-05,5.0510883738752455e-05,4.9764221330406144e-05,4.911758878733963e-05,4.853358041145839e-05,4.786017962032929e-05,4.7274726966861635e-05,4.6663135435665026e-05,4.606388392858207e-05,4.5413449697662145e-05,4.486593752517365e-05,4.434532456798479e-05,4.370110036688857e-05,4.31796615885105e-05,4.266407995601185e-05,4.209380131214857e-05,4.157153671258129e-05
3,4.443728923797607,2.772608757019043,2.584847927093506,2.4393327236175537,2.2386868000030518,1.9472993612289429,1.57431161403656,1.1840367317199707,0.7485617399215698,0.40562155842781067,0.22324742376804352,0.1040373295545578,0.056210778653621674,0.03005804307758808,0.019093913957476616,0.013533825054764748,0.011071933433413506,0.00910304393619299,0.007857313379645348,0.006814035587012768,0.006031208671629429,0.005301463883370161,0.004761394113302231,0.004299454856663942,0.003927899058908224,0.0035864785313606262,0.003291674889624119,0.0030291990842670202,0.0028134791646152735,0.002572826575487852,0.0023922862019389868,0.0022421502508223057,0.002104750368744135,0.0019686466548591852,0.0018395152874290943,0.0017233408289030194,0.0016431940020993352,0.001538375043310225,0.001463432563468814,0.0013782462337985635,0.0013066423125565052,0.001243429840542376,0.0011808006092905998,0.0011263614287599921,0.0010766939958557487,0.0010274314554408193,0.0009787121089175344,0.0009377035312354565,0.0009021317237056792,0.0008630164084024727,0.0008301430498249829,0.0007935094181448221,0.0007621495751664042,0.0007338784635066986,0.0007050189306028187,0.0006793329957872629,0.0006540686590597034,0.0006300729583017528,0.0006084339111112058,0.0005880550597794354,0.0005673742271028459,0.0005486943991854787,0.0005299940821714699,0.000513705366756767,0.0004963853280059993,0.0004809721140190959,0.0004656288947444409,0.00045097514521330595,0.0004386359069030732,0.00042639917228370905,0.000412347842939198,0.00039975062827579677,0.00038840281195007265,0.000377061078324914,0.00036738679045811296,0.00035687125637196004,0.00034795550163835287,0.0003372149367351085,0.00032893780735321343,0.0003193333395756781,0.0003123626811429858,0.0003030177904292941,0.0002952724462375045,0.00028819168801419437,0.0002802539092954248,0.0002740519412327558,0.00026705642812885344,0.0002606954949442297,0.0002546285977587104,0.0002489251783117652,0.00024237728212028742,0.0002368322020629421,0.0002314474986633286,0.000226178890443407,0.00022075939341448247,0.00021616218145936728,0.00021140603348612785,0.00020701775792986155,0.00020208623027428985,0.0001979457592824474,0.00019364645413588732,0.00018980570894200355,0.00018567591905593872,0.0001817738957470283,0.00017781855422072113,0.0001743815519148484,0.0001708154013613239,0.00016750904615037143,0.00016417932056356221,0.00016082670481409878,0.00015759712550789118,0.0001545472623547539,0.00015142142365220934,0.00014866789570078254,0.0001458110345993191,0.00014310302503872663,0.0001402703346684575,0.0001378306478727609,0.0001352255349047482,0.00013265605957712978,0.0001301637094002217,0.00012774908100254834,0.0001254561502719298,0.0001231753994943574,0.00012102014443371445,0.0001188339083455503,0.00011670451203826815,0.00011466558498796076,0.00011268107482464984,0.00011075711518060416,0.00010889198892982677,0.00010690794442780316,0.0001050727441906929,0.00010353988182032481,0.00010170412133447826,0.00010015832958742976,9.826869063545018e-05,9.667431731941178e-05,9.497022983850911e-05,9.352095366921276e-05,9.193756704917178e-05,9.044728358276188e-05,8.894377970136702e-05,8.762947254581377e-05,8.624576003057882e-05,8.484721911372617e-05,8.352482109330595e-05,8.222707401728258e-05,8.101537969196215e-05,7.965435361256823e-05,7.842398918000981e-05,7.725484465481713e-05,7.608750456711277e-05,7.491809810744599e-05,7.373854168690741e-05,7.266301690833643e-05,7.158286462072283e-05,7.050546264508739e-05,6.956596189411357e-05,6.847406621091068e-05,6.748489977326244e-05,6.654696335317567e-05,6.54444593237713e-05,6.453363312175497e-05,6.357335951179266e-05,6.279090302996337e-05,6.177247269079089e-05,6.092939656809904e-05,6.0045949794584885e-05,5.9202731790719554e-05,5.839462028234266e-05,5.754939775215462e-05,5.673887062584981e-05,5.594060348812491e-05,5.518829129869118e-05,5.4493237257702276e-05,5.37054002052173e-05,5.2928186050849035e-05,5.2219740609871224e-05,5.155351755092852e-05,5.087880708742887e-05,5.016774230170995e-05,4.949696085532196e-05,4.878644540440291e-05,4.8147532652365044e-05,4.750365042127669e-05,4.690716014010832e-05,4.630756302503869e-05,4.5679000322707e-05,4.505270771915093e-05,4.450567575986497e-05,4.3980791815556586e-05,4.3347459723008797e-05,4.280263601685874e-05,4.2241528717568144e-05,4.1706156480358914e-05,4.117636490263976e-05,4.065562097821385e-05,4.014500154880807e-05,3.961969559895806e-05
4,4.499616622924805,2.8065989017486572,2.586521625518799,2.439051628112793,2.2395694255828857,1.9898533821105957,1.6241618394851685,1.2133780717849731,0.8178368210792542,0.5092800855636597,0.2884712219238281,0.14216051995754242,0.07535608857870102,0.04074575752019882,0.025571441277861595,0.017924020066857338,0.013828661292791367,0.011230479925870895,0.009258992969989777,0.007839423604309559,0.006851864513009787,0.0061166901141405106,0.005447898060083389,0.004968002904206514,0.004489840939640999,0.004075112286955118,0.003752620192244649,0.0034789314959198236,0.0031830971129238605,0.0029385057277977467,0.002731907647103071,0.002561175962910056,0.0023634019307792187,0.0022186744026839733,0.0020861593075096607,0.001955596497282386,0.0018337995279580355,0.0017397255869582295,0.0016463471110910177,0.0015653031878173351,0.0014820910291746259,0.0014089307514950633,0.0013372399844229221,0.0012712584575638175,0.001218015095219016,0.0011585496831685305,0.0011059788521379232,0.0010551242157816887,0.00101109454408288,0.0009672591113485396,0.0009281705133616924,0.0008912464254535735,0.0008571502403356135,0.0008240999304689467,0.0007933113374747336,0.0007629047613590956,0.0007329054060392082,0.0007079500355757773,0.0006818474503234029,0.0006594529841095209,0.0006362149142660201,0.0006141659687273204,0.0005957443499937654,0.0005750009440816939,0.0005571206565946341,0.0005376246408559382,0.0005206823698244989,0.000504974857904017,0.0004901380161754787,0.00047781821922399104,0.00046062786714173853,0.00044791275286115706,0.0004330356896389276,0.0004202305863145739,0.0004079759237356484,0.0003972034901380539,0.0003862168814521283,0.00037550480919890106,0.00036476788227446377,0.0003559983742889017,0.00034635161864571273,0.0003379455301910639,0.00032877796911634505,0.00031991605646908283,0.0003117508895229548,0.0003043912583962083,0.00029679446015506983,0.0002893568598665297,0.00028223780100233853,0.00027561397291719913,0.000269667012616992,0.0002627663197927177,0.00025669901515357196,0.00025082388310693204,0.0002448659797664732,0.00023912271717563272,0.0002343591913813725,0.00022861563775222749,0.00022368979989551008,0.00021865945018362254,0.00021442364959511906,0.00020931995823048055,0.00020536535885185003,0.00020080528338439763,0.00019688239262904972,0.00019231607438996434,0.000188447127584368,0.00018436826940160245,0.00018088874639943242,0.00017738243332132697,0.00017366728570777923,0.00017011798627208918,0.00016680208500474691,0.00016373014659620821,0.00016064032388385385,0.0001571754546603188,0.00015430098574142903,0.00015163251373451203,0.0001486496184952557,0.00014585809549316764,0.00014301319606602192,0.0001403762144036591,0.0001378114684484899,0.0001352283579763025,0.00013299011334311217,0.00013034636504016817,0.00012816002708859742,0.0001257167459698394,0.00012364501890260726,0.00012142820924054831,0.00011933999485336244,0.00011757506581488997,0.00011515976075315848,0.00011339243792463094,0.00011139066191390157,0.00010929707786999643,0.00010761063458630815,0.00010594018385745585,0.00010403146734461188,0.0001024189405143261,0.00010049883712781593,9.899712313199416e-05,9.748873708304018e-05,9.57665397436358e-05,9.433655941393226e-05,9.275331103708595e-05,9.128058445639908e-05,8.993242227006704e-05,8.842088573146611e-05,8.717376476852223e-05,8.565046300645918e-05,8.435585914412513e-05,8.29967248137109e-05,8.179498399840668e-05,8.048872405197471e-05,7.932519656606019e-05,7.808281952748075e-05,7.68794707255438e-05,7.58463647798635e-05,7.459065818693489e-05,7.350424857577309e-05,7.244230801006779e-05,7.136567728593946e-05,7.030070264590904e-05,6.925218622200191e-05,6.824557931395248e-05,6.721488171024248e-05,6.627026596106589e-05,6.531502731377259e-05,6.439413118641824e-05,6.348711031023413e-05,6.254104664549232e-05,6.173216388560832e-05,6.081363608245738e-05,5.9970621805405244e-05,5.913174754823558e-05,5.8304871345171705e-05,5.748109470005147e-05,5.67552779102698e-05,5.591611989075318e-05,5.513470750884153e-05,5.4450883908430114e-05,5.3663265134673566e-05,5.291102206683718e-05,5.22360933246091e-05,5.1524690206861123e-05,5.081500421511009e-05,5.021872857469134e-05,4.952815288561396e-05,4.8813359171617776e-05,4.819493551622145e-05,4.753809480462223e-05,4.69565020466689e-05,4.62688876723405e-05,4.574075137497857e-05,4.516986882663332e-05,4.4549713493324816e-05,4.400695615913719e-05,4.341929889051244e-05,4.284625902073458e-05
