,0,1,2,3,4,5,6,7,8,9,10,11,12,13,14,15,16,17,18,19,20,21,22,23,24,25,26,27,28,29,30,31,32,33,34,35,36,37,38,39,40,41,42,43,44,45,46,47,48,49,50,51,52,53,54,55,56,57,58,59,60,61,62,63,64,65,66,67,68,69,70,71,72,73,74,75,76,77,78,79,80,81,82,83,84,85,86,87,88,89,90,91,92,93,94,95,96,97,98,99,100,101,102,103,104,105,106,107,108,109,110,111,112,113,114,115,116,117,118,119,120,121,122,123,124,125,126,127,128,129,130,131,132,133,134,135,136,137,138,139,140,141,142,143,144,145,146,147,148,149,150,151,152,153,154,155,156,157,158,159,160,161,162,163,164,165,166,167,168,169,170,171,172,173,174,175,176,177,178,179,180,181,182,183,184,185,186,187,188,189,190,191,192,193,194,195,196,197,198,199
0,4.943182468414307,2.839139223098755,2.608717679977417,2.4526143074035645,2.2802186012268066,2.0493500232696533,1.7563583850860596,1.4634031057357788,1.0793215036392212,0.7137549519538879,0.4371248781681061,0.25289586186408997,0.1279526799917221,0.08089576661586761,0.044978152960538864,0.03197493404150009,0.020085172727704048,0.015432581305503845,0.012288142926990986,0.01027112826704979,0.00904673058539629,0.008045470342040062,0.006983158178627491,0.006215346977114677,0.005598172079771757,0.005135227460414171,0.004723783116787672,0.004307023249566555,0.003993519581854343,0.00366403185762465,0.003392999293282628,0.003166109323501587,0.0029335571452975273,0.0027635719161480665,0.002585116308182478,0.0024350679013878107,0.002286610659211874,0.002165157813578844,0.0020532121416181326,0.0019701439887285233,0.0018646905664354563,0.001756036770530045,0.0016700605629011989,0.0015865529421716928,0.0015157453017309308,0.001449716743081808,0.001383629976771772,0.0013217070372775197,0.001272740075364709,0.001213889685459435,0.0011695080902427435,0.0011187128257006407,0.001076537650078535,0.0010319520952180028,0.000995081034488976,0.0009582812781445682,0.0009237756603397429,0.0008893911144696176,0.0008583394228480756,0.0008294766885228455,0.0008013179176487029,0.0007776719285175204,0.0007536097546108067,0.0007267897599376738,0.0007056966423988342,0.0006820298149250448,0.0006604863447137177,0.0006396344979293644,0.0006218334892764688,0.0006016691331751645,0.0005871730390936136,0.0005677365115843713,0.0005518016987480223,0.0005360810901038349,0.0005208033253438771,0.0005076383822597563,0.0004936641780659556,0.00048054938088171184,0.00046873220708221197,0.0004569657612591982,0.0004443826910573989,0.00043343636207282543,0.000422111275838688,0.0004126140265725553,0.00040189517312683165,0.0003913675609510392,0.0003819514822680503,0.0003723477420862764,0.00036372430622577667,0.0003562005585990846,0.0003474115510471165,0.0003394734812900424,0.0003318794770166278,0.0003241985396016389,0.0003177578328177333,0.0003099001187365502,0.00030298574711196125,0.00029673753306269646,0.00029038009233772755,0.00028441089671105146,0.0002786272088997066,0.0002729758562054485,0.00026738049928098917,0.0002615064731799066,0.00025617307983338833,0.0002512825303710997,0.0002459024835843593,0.00024161032342817634,0.00023656304983887821,0.0002323216904187575,0.00022769921633880585,0.0002230019890703261,0.00021883008594159037,0.00021506233315449208,0.0002110446075676009,0.00020705771748907864,0.00020303044584579766,0.00019946943211834878,0.00019605099805630744,0.00019242333655711263,0.0001887757534859702,0.00018541155441198498,0.0001821755722630769,0.00017916171054821461,0.00017567792383488268,0.00017313341959379613,0.00016994585166685283,0.00016712209617253393,0.00016399657761212438,0.00016114537720568478,0.00015888121561147273,0.0001563212281325832,0.0001537488424219191,0.00015098876610863954,0.00014845957048237324,0.0001459524210076779,0.00014363808440975845,0.00014145622844807804,0.00013919439516030252,0.00013688359467778355,0.00013484267401508987,0.0001328805083176121,0.00013050904090050608,0.00012850103667005897,0.00012644489470403641,0.00012460707512218505,0.00012246599362697452,0.00012068814976373687,0.00011890276800841093,0.00011715276195900515,0.00011550537601578981,0.00011368060950189829,0.00011206766066607088,0.00011039175296900794,0.00010879692854359746,0.0001071548176696524,0.00010557597124716267,0.00010402689076727256,0.0001025253877742216,0.00010121185187017545,9.983471682062373e-05,9.834999218583107e-05,9.697998757474124e-05,9.555756696499884e-05,9.429626516066492e-05,9.304498962592334e-05,9.171687270281836e-05,9.043993486557156e-05,8.918176172301173e-05,8.793890447122976e-05,8.68183997226879e-05,8.565028838347644e-05,8.446713036391884e-05,8.339873602380976e-05,8.229865488829091e-05,8.118130062939599e-05,8.00261041149497e-05,7.899205957073718e-05,7.799297600286081e-05,7.702615403104573e-05,7.592449401272461e-05,7.495180034311488e-05,7.404913776554167e-05,7.311302761081606e-05,7.215670484583825e-05,7.11808679625392e-05,7.03119658282958e-05,6.943975313333794e-05,6.851415673736483e-05,6.767778540961444e-05,6.684562686132267e-05,6.602879147976637e-05,6.526293873321265e-05,6.43780585960485e-05,6.366633897414431e-05,6.286920688580722e-05,6.207123078638688e-05,6.128526001702994e-05,6.051435411791317e-05,5.980967034702189e-05
1,4.668390274047852,2.92733097076416,2.613032102584839,2.4894490242004395,2.316286325454712,2.0966031551361084,1.799492359161377,1.433007836341858,1.0539933443069458,0.7684327960014343,0.46519628167152405,0.2356160432100296,0.13084587454795837,0.07376879453659058,0.04002894461154938,0.02902374044060707,0.02141662873327732,0.015648750588297844,0.012845619581639767,0.010764299891889095,0.009185656905174255,0.008109385147690773,0.00719927903264761,0.006398156750947237,0.0058006602339446545,0.005282090976834297,0.004843209404498339,0.004453996662050486,0.004096360877156258,0.003777687670662999,0.003548576030880213,0.00328869023360312,0.003034863853827119,0.0028694013599306345,0.0027006540913134813,0.0025405106134712696,0.002381601370871067,0.0022423584014177322,0.0021224229130893946,0.0020061172544956207,0.0018970018718391657,0.0018032805528491735,0.001715746009722352,0.0016355209518224,0.0015595739241689444,0.0014830491272732615,0.001417933264747262,0.001358550158329308,0.0013051227433606982,0.0012433587107807398,0.0011878686491400003,0.0011429062578827143,0.0011005192063748837,0.0010546636767685413,0.0010164589621126652,0.0009771829936653376,0.0009425961179658771,0.0009085014462471008,0.0008786563412286341,0.0008458707015961409,0.0008175807888619602,0.0007882131612859666,0.0007627690210938454,0.0007363336044363678,0.0007147312280721962,0.000694086542353034,0.0006703893886879086,0.000650470785330981,0.0006322962581180036,0.0006134286522865295,0.0005936293164268136,0.0005769205745309591,0.0005623676115646958,0.0005453382036648691,0.0005301535711623728,0.0005153178935870528,0.0005023964331485331,0.00048812193563207984,0.000475202570669353,0.0004619240644387901,0.0004498097987379879,0.0004386775544844568,0.00042728602420538664,0.00041718597640283406,0.00040728316525928676,0.0003969568060711026,0.00038724587648175657,0.00037815977702848613,0.0003697478969115764,0.0003597018076106906,0.00035147875314578414,0.00034325840533711016,0.00033526329207234085,0.0003277393407188356,0.00032044839463196695,0.00031401857268065214,0.0003063804761040956,0.0003000425058417022,0.0002936264791060239,0.0002869878080673516,0.0002811699523590505,0.00027488759951666,0.0002690906112547964,0.0002639362937770784,0.0002586942573543638,0.0002529693010728806,0.0002473612257745117,0.00024336110800504684,0.00023796937603037804,0.0002334840246476233,0.00022884811914991587,0.00022489407274406403,0.00022020464530214667,0.00021665530221071094,0.00021228262630756944,0.0002080468402709812,0.00020436590421013534,0.0002005953574553132,0.00019680405966937542,0.0001931008737301454,0.00018975370039697737,0.00018624837684910744,0.0001830738183343783,0.00018005432502832264,0.00017659181321505457,0.00017337164899799973,0.0001704543683445081,0.00016754269017837942,0.00016470193804707378,0.00016184293781407177,0.0001592591725056991,0.00015653639275114983,0.00015382631681859493,0.00015151957632042468,0.00014896944048814476,0.00014646482304669917,0.00014396599726751447,0.00014180384459905326,0.00013956982002127916,0.00013721494178753346,0.00013510629651136696,0.00013295061944518238,0.00013082624354865402,0.00012880611757282168,0.00012668421550188214,0.0001248604676220566,0.0001228353357873857,0.00012106786016374826,0.00011910595640074462,0.00011745982919819653,0.00011582399747567251,0.00011420532246120274,0.0001123383772210218,0.00011068359890487045,0.0001089545912691392,0.00010770017979666591,0.00010594201739877462,0.00010447253589518368,0.0001029126942739822,0.00010133524483535439,9.99681869870983e-05,9.853934170678258e-05,9.713701001601294e-05,9.580170444678515e-05,9.45070423767902e-05,9.314037743024528e-05,9.17841462069191e-05,9.06073473743163e-05,8.931184856919572e-05,8.8107080955524e-05,8.691049151821062e-05,8.568420889787376e-05,8.457004150841385e-05,8.339962369063869e-05,8.235003770096228e-05,8.130310743581504e-05,8.008382428670302e-05,7.914399611763656e-05,7.805351197021082e-05,7.706574979238212e-05,7.60598704800941e-05,7.503958477173e-05,7.40346877137199e-05,7.311595982173458e-05,7.217305392259732e-05,7.128304423531517e-05,7.039212505333126e-05,6.945378117961809e-05,6.861748988740146e-05,6.772689812351018e-05,6.683473475277424e-05,6.609793490497395e-05,6.524128548335284e-05,6.454025424318388e-05,6.365370791172609e-05,6.284207483986393e-05,6.209385173860937e-05,6.131293048383668e-05,6.052515527699143e-05,5.9815334680024534e-05
2,4.397336006164551,2.799903631210327,2.5599470138549805,2.4002389907836914,2.17995023727417,1.8783588409423828,1.539096713066101,1.1519415378570557,0.8171067237854004,0.49521759152412415,0.27588316798210144,0.14715923368930817,0.07413089275360107,0.037993911653757095,0.024195371195673943,0.016210753470659256,0.012832224369049072,0.010406887158751488,0.008848200552165508,0.007681448478251696,0.006829514633864164,0.005993733182549477,0.005351487547159195,0.004903438501060009,0.004429202061146498,0.004082329571247101,0.0037012146785855293,0.0034148222766816616,0.003163194051012397,0.002950033638626337,0.0027484502643346786,0.0025610432494431734,0.002400003606453538,0.002251892350614071,0.002112213522195816,0.001985484967008233,0.0018777208169922233,0.0017751737032085657,0.0016744582680985332,0.001598897622898221,0.0015162546187639236,0.0014480340760201216,0.0013822383480146527,0.0013195674400776625,0.0012564732460305095,0.001199027756229043,0.0011421293020248413,0.0010927165858447552,0.0010519017232581973,0.0010067349066957831,0.0009667687700130045,0.0009300620877183974,0.000891343574039638,0.0008588270284235477,0.0008283528150059283,0.0007989745354279876,0.0007703107548877597,0.0007450024131685495,0.0007190070464275777,0.0006938487058505416,0.0006719765369780362,0.0006485379999503493,0.0006302326219156384,0.0006087237852625549,0.0005891966284252703,0.0005725391092710197,0.0005532375071197748,0.0005380248185247183,0.0005223118350841105,0.0005075236549600959,0.0004923858214169741,0.00048149903886951506,0.0004659114929381758,0.0004546656855382025,0.00044129995512776077,0.00042895920341834426,0.0004169485764577985,0.0004052341100759804,0.0003946871729567647,0.00038476765621453524,0.00037447057547979057,0.00036584437475539744,0.0003568048996385187,0.00034816365223377943,0.0003390928904991597,0.00033159382292069495,0.000323386222589761,0.00031629399745725095,0.0003087219665758312,0.0003026115009561181,0.0002947549510281533,0.0002880354586523026,0.00028147309785708785,0.0002757000329438597,0.00026924494886770844,0.00026401091599836946,0.0002583982713986188,0.0002531436912249774,0.00024706035037525,0.00024179203319363296,0.00023713776317890733,0.00023153099755290896,0.0002271265839226544,0.00022244105639401823,0.00021843946888111532,0.00021357742662075907,0.00020951485203113407,0.00020541198318824172,0.00020112385391257703,0.00019711494678631425,0.0001934454048750922,0.0001899141352623701,0.00018658637418411672,0.0001828645181376487,0.00017919414676725864,0.0001761822495609522,0.00017284791101701558,0.0001697393599897623,0.00016658021195326,0.00016378407599404454,0.00016073523147497326,0.00015819226973690093,0.0001551814202684909,0.00015284241817425936,0.00015072728274390101,0.00014756640302948654,0.00014472637849394232,0.000142267657793127,0.00013990716252010316,0.0001376288419123739,0.00013532325101550668,0.0001330760569544509,0.0001308796927332878,0.00012887486082036048,0.00012656439503189176,0.00012450333451852202,0.00012257331400178373,0.00012062630412401631,0.00011887388973264024,0.00011694816203089431,0.00011508314491948113,0.00011328695836709812,0.00011160530266351998,0.00010985980770783499,0.00010822222975548357,0.00010654229845385998,0.00010509357525734231,0.00010339541040593758,0.00010182546975556761,0.00010032322461484,9.887519263429567e-05,9.737393702380359e-05,9.587955719325691e-05,9.445660543860868e-05,9.318063530372456e-05,9.178683831123635e-05,9.043588943313807e-05,8.916050137486309e-05,8.79196377354674e-05,8.66237169248052e-05,8.533692744094878e-05,8.418048673775047e-05,8.307833195431158e-05,8.192717359634116e-05,8.07247924967669e-05,7.955129694892094e-05,7.854690193198621e-05,7.745890616206452e-05,7.635974179720506e-05,7.543446554336697e-05,7.430267578456551e-05,7.33470224076882e-05,7.243319123517722e-05,7.13783738319762e-05,7.048239785945043e-05,6.947493238840252e-05,6.857300468254834e-05,6.77333227940835e-05,6.682906678179279e-05,6.610039417864755e-05,6.510192906716838e-05,6.434162787627429e-05,6.352222408168018e-05,6.263560499064624e-05,6.190651038195938e-05,6.109032983658835e-05,6.033556564943865e-05,5.960313865216449e-05,5.876030627405271e-05,5.815974873257801e-05,5.737236642744392e-05,5.665477874572389e-05,5.593436071649194e-05,5.5300533858826384e-05,5.4581363656325266e-05,5.391656668507494e-05,5.330334897735156e-05,5.2605617383960634e-05,5.197319114813581e-05,5.1354341849219054e-05
3,4.3861403465271,2.823363780975342,2.5476250648498535,2.350897789001465,2.1156208515167236,1.8498623371124268,1.441896915435791,1.0179753303527832,0.6957806348800659,0.3917344808578491,0.20193645358085632,0.10606000572443008,0.058108389377593994,0.03282579034566879,0.021242542192339897,0.01576818712055683,0.012651896104216576,0.01061604730784893,0.008981290273368359,0.007887453772127628,0.006937646307051182,0.00616330886259675,0.005617436952888966,0.005088692996650934,0.004615279845893383,0.004203032236546278,0.003864274127408862,0.003567700507119298,0.0033157309517264366,0.0030806732829660177,0.0028752197977155447,0.0026804141234606504,0.002510979538783431,0.0023556584492325783,0.0022081404458731413,0.0020680250599980354,0.0019435035064816475,0.0018405133159831166,0.0017480739625170827,0.0016576370690017939,0.0015804923605173826,0.0014875777997076511,0.0014215277042239904,0.0013493639416992664,0.001289373030886054,0.0012316979700699449,0.0011805231915786862,0.0011268951930105686,0.0010788619983941317,0.0010354651603847742,0.0009929005755111575,0.0009546329383738339,0.0009208412375301123,0.0008879068191163242,0.0008522570715285838,0.0008196219569072127,0.0007900712662376463,0.0007601976976729929,0.0007335912669077516,0.0007088709389790893,0.0006842362345196307,0.0006630356656387448,0.0006405258900485933,0.0006215597968548536,0.0006007789052091539,0.000583966204430908,0.0005656988359987736,0.000548574433196336,0.0005337649490684271,0.0005149630014784634,0.0005031840992160141,0.0004891956341452897,0.0004732607048936188,0.0004604549321811646,0.00044797471491619945,0.00043457746505737305,0.0004233842482790351,0.0004132269532419741,0.0004015518934465945,0.000391558074625209,0.00038126111030578613,0.00037115361192263663,0.00036165796336717904,0.00035250786459073424,0.00034449136001057923,0.00033567118225619197,0.0003283923433627933,0.00032002554507926106,0.0003127746458631009,0.0003059261362068355,0.00029845788958482444,0.0002918789687100798,0.00028515447047539055,0.0002786292461678386,0.0002724782098084688,0.000266615126747638,0.0002619283040985465,0.00025574304163455963,0.000250348006375134,0.00024457505787722766,0.00023963414423633367,0.0002345639659324661,0.00022975045430939645,0.00022473643184639513,0.00022066339442972094,0.00021582804038189352,0.00021284903050400317,0.0002074291551252827,0.00020388612756505609,0.00019982943194918334,0.0001957491913344711,0.0001917792105814442,0.00018822253332473338,0.00018518771685194224,0.00018142093904316425,0.0001778033620212227,0.00017504127754364163,0.00017146073514595628,0.0001685428142081946,0.00016536304610781372,0.00016206182772293687,0.00015954163973219693,0.00015673486632294953,0.00015378877287730575,0.00015122209151741117,0.00014867284335196018,0.00014591235958505422,0.00014346957323141396,0.00014108965115156025,0.0001387599913869053,0.00013644981663674116,0.00013416491856332868,0.00013193109771236777,0.00012960354797542095,0.00012757540389429778,0.00012559446622617543,0.00012329577293712646,0.00012152943963883445,0.00011972986976616085,0.00011769223783630878,0.00011613090464379638,0.00011404561519157141,0.00011222398461541161,0.00011070503387600183,0.00010859007306862622,0.0001072215018211864,0.00010542709060246125,0.00010383764310972765,0.00010227126040263101,0.00010087306873174384,9.932001557899639e-05,9.780576510820538e-05,9.636841423343867e-05,9.496951679466292e-05,9.361327829537913e-05,9.23776242416352e-05,9.088335355045274e-05,8.970416092779487e-05,8.830882143229246e-05,8.711405826034024e-05,8.581044676247984e-05,8.469042222714052e-05,8.361848449567333e-05,8.234103734139353e-05,8.125733438646421e-05,8.012406033230945e-05,7.898385229054838e-05,7.784288754919544e-05,7.685190939810127e-05,7.587607979075983e-05,7.486356480512768e-05,7.369873492280021e-05,7.287113112397492e-05,7.174877828219905e-05,7.085149263730273e-05,6.996089359745383e-05,6.90255401423201e-05,6.819477857789025e-05,6.726066203555092e-05,6.638951890636235e-05,6.544694042531773e-05,6.458887946791947e-05,6.380400009220466e-05,6.304516864474863e-05,6.217146437847987e-05,6.148400279926136e-05,6.064860644983128e-05,5.9893929574172944e-05,5.9126752603333443e-05,5.8457331761019304e-05,5.772947406512685e-05,5.6968008721014485e-05,5.626432175631635e-05,5.5600434279767796e-05,5.485831934493035e-05,5.414569386630319e-05,5.353163942345418e-05,5.289342152536847e-05,5.2217787015251815e-05,5.161028093425557e-05
4,4.724147319793701,2.8339178562164307,2.6042654514312744,2.4736833572387695,2.288121461868286,2.05035138130188,1.7275315523147583,1.3505407571792603,0.9196390509605408,0.550512969493866,0.30188658833503723,0.18202541768550873,0.0884259045124054,0.048300404101610184,0.027948372066020966,0.01844063401222229,0.013748419471085072,0.011282396502792835,0.009612352587282658,0.008204491809010506,0.007128640078008175,0.006390958558768034,0.005743133835494518,0.005076645873486996,0.004675709176808596,0.0042511653155088425,0.003902978263795376,0.0036130931694060564,0.0033060202840715647,0.0030635495204478502,0.002857593586668372,0.002676134929060936,0.002490786137059331,0.00233187316916883,0.0021867656614631414,0.0020630888175219297,0.001950004487298429,0.001843565027229488,0.0017447378486394882,0.0016591181047260761,0.0015827614115551114,0.0014960403786972165,0.001425249851308763,0.0013570135924965143,0.0012992472620680928,0.0012403139844536781,0.0011885514250025153,0.0011349108535796404,0.001088458113372326,0.0010481661884114146,0.0010058878688141704,0.0009662164375185966,0.000932415307033807,0.0008962987340055406,0.0008592493832111359,0.0008302893256768584,0.0008021938847377896,0.000773505016695708,0.0007468694821000099,0.0007197862141765654,0.0006966419750824571,0.0006729575688950717,0.0006512802792713046,0.0006325157009996474,0.0006112429546192288,0.0005929107428528368,0.0005742525681853294,0.0005576406256295741,0.0005425888812169433,0.0005240587634034455,0.0005098057445138693,0.000496613560244441,0.0004816725559066981,0.0004679366829805076,0.00045539563870988786,0.0004443432844709605,0.0004311595985200256,0.00041974225314334035,0.0004101541417185217,0.00039848429150879383,0.0003881022857967764,0.0003784663276746869,0.0003698132059071213,0.0003604274243116379,0.00035143288550898433,0.0003435622784309089,0.0003343470743857324,0.0003274736227467656,0.0003191973955836147,0.0003123086644336581,0.0003048264770768583,0.0002979861747007817,0.00029112643096596,0.0002846448915079236,0.00027867878088727593,0.0002726976526901126,0.0002668614615686238,0.0002612443931866437,0.0002558180713094771,0.0002507343306206167,0.00024533519172109663,0.0002401231467956677,0.00023526549921371043,0.00023030601732898504,0.0002256888255942613,0.00022148832795210183,0.00021749672305304557,0.00021311335149221122,0.00020876280905213207,0.00020455064077395946,0.00020102398411836475,0.00019705026352312416,0.0001935117761604488,0.00018986793293152004,0.0001865859521785751,0.00018306331185158342,0.00017966769519262016,0.00017622763698454946,0.00017333946016151458,0.00017016146739479154,0.00016718129336368293,0.00016412291734013706,0.00016132145537994802,0.0001584359270054847,0.00015573363634757698,0.00015314175107050687,0.00015045449254103005,0.00014790153363719583,0.00014530331827700138,0.00014318384637590498,0.00014078307140152901,0.00013837768347002566,0.00013619348464999348,0.00013403578486759216,0.00013183322153054178,0.00012952552060596645,0.00012778346717823297,0.00012553503620438278,0.00012358090316411108,0.00012173390859970823,0.00011978730617556721,0.00011801539949374273,0.00011621059820754454,0.00011432601604610682,0.00011281701154075563,0.00011105213343398646,0.00010937246406683698,0.00010772082896437496,0.00010609825403662398,0.00010451729031046852,0.00010307924094377086,0.00010152171307709068,0.00010007475066231564,9.85480219242163e-05,9.709748701425269e-05,9.584232611814514e-05,9.444750321563333e-05,9.304434206569567e-05,9.178642358165234e-05,9.05545093701221e-05,8.94256227184087e-05,8.796236215857789e-05,8.68069109856151e-05,8.562018774682656e-05,8.444314880762249e-05,8.332394645549357e-05,8.218899165512994e-05,8.104687003651634e-05,8.001659443834797e-05,7.88709003245458e-05,7.77944951551035e-05,7.685168384341523e-05,7.585581624880433e-05,7.47592857806012e-05,7.381878822343424e-05,7.283076411113143e-05,7.182851550169289e-05,7.099580398062244e-05,7.00696327839978e-05,6.916702113812789e-05,6.83471153024584e-05,6.748724263161421e-05,6.657512130914256e-05,6.570373807335272e-05,6.489359657280147e-05,6.406567990779877e-05,6.3302883063443e-05,6.246178963920102e-05,6.175917951622978e-05,6.097345249145292e-05,6.025767288520001e-05,5.9537269407883286e-05,5.8818102843360975e-05,5.804836473544128e-05,5.7418008509557694e-05,5.6635919463587925e-05,5.601689554168843e-05,5.5300632084254175e-05,5.4678057495038956e-05,5.399488509283401e-05
5,4.260148525238037,2.744236707687378,2.52905535697937,2.32102108001709,2.057042360305786,1.7206501960754395,1.363573670387268,0.9241952896118164,0.5636422634124756,0.32697224617004395,0.18570609390735626,0.10013916343450546,0.059069760143756866,0.032770078629255295,0.023017624393105507,0.01694321073591709,0.012902466580271721,0.010719173587858677,0.009258491918444633,0.008060678839683533,0.00707585085183382,0.006422375328838825,0.005785320419818163,0.00524754635989666,0.004870557691901922,0.004428450018167496,0.004009291063994169,0.0036869326140731573,0.003436598228290677,0.003202351974323392,0.002979421289637685,0.0027806481812149286,0.002603140426799655,0.0024359379895031452,0.0023012058809399605,0.002160715637728572,0.0020540631376206875,0.0019529999699443579,0.0018471480580046773,0.0017564970767125487,0.0016603645635768771,0.0015847434988245368,0.001509603695012629,0.0014358448097482324,0.0013744302559643984,0.0013130743755027652,0.0012578833848237991,0.0012034678366035223,0.0011556048411875963,0.0011100339470431209,0.0010649574687704444,0.0010226183803752065,0.0009842002764344215,0.0009485446498729289,0.0009146931115537882,0.0008825422846712172,0.0008565073949284852,0.0008206409984268248,0.0007942811353132129,0.0007642298005521297,0.0007405795040540397,0.0007159447413869202,0.0006932346150279045,0.0006726645515300333,0.0006531495600938797,0.0006329891039058566,0.000611830735579133,0.000595909426920116,0.0005774509627372026,0.0005640776362270117,0.000544459733646363,0.0005287279491312802,0.0005137046682648361,0.0005006936844438314,0.00048502552090212703,0.0004730998771265149,0.00046072027180343866,0.0004487047262955457,0.0004367707879282534,0.0004261011490598321,0.00041518485522828996,0.00040515471482649446,0.0003951757389586419,0.00038588899769820273,0.0003766157606150955,0.0003667364071588963,0.00035869015846401453,0.0003499242302495986,0.00034195289481431246,0.0003338999522384256,0.00032619942794553936,0.00031902844784781337,0.0003118304302915931,0.00030523291206918657,0.0002984790480695665,0.00029240056755952537,0.00028528631082735956,0.0002803874958772212,0.00027381975087337196,0.00026829479611478746,0.00026247312780469656,0.0002571627264842391,0.00025132138398475945,0.0002472306659910828,0.00024168319941964,0.0002367000561207533,0.0002322590589756146,0.00022756049293093383,0.0002236943255411461,0.0002191963721998036,0.00021468034537974745,0.000210819038329646,0.0002065070002572611,0.00020276322902645916,0.0001990173477679491,0.00019522348884493113,0.00019202286785002798,0.0001883484364952892,0.00018507844652049243,0.00018146313959732652,0.00017828856653068215,0.0001751103700371459,0.00017238932196050882,0.00016926610260270536,0.0001663948205532506,0.00016370019875466824,0.00016075180610641837,0.00015821968554519117,0.00015558807353954762,0.00015270091535057873,0.00015009012713562697,0.00014736245793756098,0.00014529893815051764,0.00014291114348452538,0.00014057502266950905,0.00013855352881364524,0.00013625891006086022,0.00013398146256804466,0.000131910594063811,0.00012979371240362525,0.0001277767587453127,0.0001258099073311314,0.00012401421554386616,0.00012218093615956604,0.0001199536636704579,0.00011816449841717258,0.00011637311399681494,0.00011458017979748547,0.00011296496813884005,0.00011148476914968342,0.00010984696564264596,0.00010796310380101204,0.00010637792729539797,0.00010487550753168762,0.00010325674520572647,0.00010189379099756479,0.00010027624375652522,9.895758557831869e-05,9.74588401732035e-05,9.62016565608792e-05,9.481919551035389e-05,9.342113480670378e-05,9.215858881361783e-05,9.083884651772678e-05,8.980142592918128e-05,8.84464752743952e-05,8.716441516298801e-05,8.593258098699152e-05,8.478333620587364e-05,8.353590237675235e-05,8.256339060608298e-05,8.132656512316316e-05,8.033667836571112e-05,7.920000643935055e-05,7.817390724085271e-05,7.718581764493138e-05,7.621568511240184e-05,7.507008558604866e-05,7.414117135340348e-05,7.328973879339173e-05,7.223765715025365e-05,7.140583329601213e-05,7.03492114553228e-05,6.964345811866224e-05,6.859566929051653e-05,6.783254502806813e-05,6.684824620606378e-05,6.606675742659718e-05,6.521796603919938e-05,6.443182792281732e-05,6.354206561809406e-05,6.282197864493355e-05,6.202881195349619e-05,6.125063373474404e-05,6.047674105502665e-05,5.9777696151286364e-05,5.905115540372208e-05,5.830954614793882e-05,5.759062332799658e-05,5.692152990377508e-05
6,5.37326717376709,3.0528132915496826,2.6464309692382812,2.5121877193450928,2.3617665767669678,2.1482579708099365,1.8992440700531006,1.5841593742370605,1.2285016775131226,0.857717752456665,0.5603809356689453,0.33010053634643555,0.18691861629486084,0.10519945621490479,0.05828237161040306,0.03508618101477623,0.02329612523317337,0.01694217324256897,0.013685711659491062,0.011456367559731007,0.010020332410931587,0.008580922149121761,0.007608921732753515,0.006790123879909515,0.006024970673024654,0.005486113950610161,0.005011826753616333,0.0045743901282548904,0.004215392284095287,0.003901274409145117,0.0035977913066744804,0.003332690102979541,0.003104199655354023,0.0029020640067756176,0.002745483536273241,0.002551268320530653,0.00238826428540051,0.002257267013192177,0.0021419664844870567,0.0020456775091588497,0.0019231826299801469,0.0018215881427749991,0.0017544141737744212,0.001646482152864337,0.001582016353495419,0.0015061285812407732,0.0014288091333582997,0.0013678062241524458,0.0013051698915660381,0.0012535187415778637,0.0012075502891093493,0.0011552762007340789,0.001116498839110136,0.0010632608318701386,0.0010187124134972692,0.0009824768640100956,0.0009472093661315739,0.0009136309381574392,0.00087999232346192,0.0008509777253493667,0.0008234985289163888,0.0007945391698740423,0.0007677148678340018,0.0007414845167659223,0.0007181790424510837,0.0006961416802369058,0.0006742982077412307,0.0006543403142131865,0.0006351706688292325,0.0006169723928906024,0.0005984973395243287,0.0005817924393340945,0.0005649836384691298,0.0005472265766002238,0.0005312715074978769,0.0005174241377972066,0.0005030828178860247,0.0004901172360405326,0.00047594672651030123,0.0004646250745281577,0.0004521579830907285,0.0004427788662724197,0.0004300118307583034,0.00041812576819211245,0.0004085963882971555,0.0003990345576312393,0.0003884745528921485,0.0003794264339376241,0.0003700294764712453,0.00036296408507041633,0.0003531111287884414,0.00034508490352891386,0.0003372459323145449,0.00033024701406247914,0.00032280897721648216,0.0003154885780531913,0.00030804506968706846,0.00030192453414201736,0.00029547250596806407,0.00028892853879369795,0.00028305689920671284,0.0002772525476757437,0.00027143850456923246,0.0002660990576259792,0.0002608690701890737,0.0002552816877141595,0.0002503388386685401,0.0002453963679727167,0.00024136480351444334,0.00023606698960065842,0.00023187448095995933,0.00022666118456982076,0.00022307172184810042,0.00021852870122529566,0.00021434786322060972,0.00021021866996306926,0.00020623148884624243,0.00020254806440789253,0.0001990398595808074,0.00019555704784579575,0.00019170506857335567,0.00018815998919308186,0.00018525384075473994,0.000181708499439992,0.00017859111540019512,0.00017562713765073568,0.00017245960771106184,0.0001696414256002754,0.00016666633018758148,0.00016381700697820634,0.00016117545601446182,0.0001582799304742366,0.00015570376126561314,0.00015333810006268322,0.00015043746680021286,0.00014808929699938744,0.00014588498743250966,0.0001434734876966104,0.00014123243454378098,0.00013884356303606182,0.00013675277295988053,0.00013441484770737588,0.0001323761243838817,0.00013050854613538831,0.00012838380644097924,0.000126301049022004,0.00012426410103216767,0.0001224052393808961,0.00012068977230228484,0.00011883604747708887,0.00011709932732628658,0.00011543916480150074,0.00011366406397428364,0.0001119968801504001,0.00011021327372873202,0.00010865333024412394,0.00010705477325245738,0.00010563835530774668,0.00010405166540294886,0.00010267688776366413,0.00010126672714250162,9.976205183193088e-05,9.822320134844631e-05,9.693609172245488e-05,9.558440797263756e-05,9.432038496015593e-05,9.28547015064396e-05,9.180539927911013e-05,9.042488090926781e-05,8.909875032259151e-05,8.786898251855746e-05,8.669741509947926e-05,8.563617302570492e-05,8.446143328910694e-05,8.330673153977841e-05,8.216121204895899e-05,8.111955685308203e-05,8.002560934983194e-05,7.896874740254134e-05,7.794133853167295e-05,7.69668331486173e-05,7.591277244500816e-05,7.489100971724838e-05,7.394833664875478e-05,7.30331739760004e-05,7.206345617305487e-05,7.115764310583472e-05,7.031075074337423e-05,6.93566762492992e-05,6.853290688013658e-05,6.772260530851781e-05,6.681754894088954e-05,6.598397885682061e-05,6.513436528621241e-05,6.43965759081766e-05,6.35890755802393e-05,6.278539513004944e-05,6.203221710165963e-05,6.133828719612211e-05,6.05392488068901e-05
