,0,1,2,3,4,5,6,7,8,9,10,11,12,13,14,15,16,17,18,19,20,21,22,23,24,25,26,27,28,29,30,31,32,33,34,35,36,37,38,39,40,41,42,43,44,45,46,47,48,49,50,51,52,53,54,55,56,57,58,59,60,61,62,63,64,65,66,67,68,69,70,71,72,73,74,75,76,77,78,79,80,81,82,83,84,85,86,87,88,89,90,91,92,93,94,95,96,97,98,99,100,101,102,103,104,105,106,107,108,109,110,111,112,113,114,115,116,117,118,119,120,121,122,123,124,125,126,127,128,129,130,131,132,133,134,135,136,137,138,139,140,141,142,143,144,145,146,147,148,149,150,151,152,153,154,155,156,157,158,159,160,161,162,163,164,165,166,167,168,169,170,171,172,173,174,175,176,177,178,179,180,181,182,183,184,185,186,187,188,189,190,191,192,193,194,195,196,197,198,199
0,4.241575717926025,2.738335132598877,2.5630078315734863,2.398298740386963,2.1763434410095215,1.8700953722000122,1.47463858127594,1.0172024965286255,0.6004636883735657,0.3429630398750305,0.1573266088962555,0.06738805770874023,0.03570208698511124,0.02229619026184082,0.015792381018400192,0.012485736049711704,0.01028805784881115,0.008751760236918926,0.007475993596017361,0.0065239062532782555,0.005783490836620331,0.005108619574457407,0.004539680201560259,0.004147207830101252,0.0037307729944586754,0.0033979853615164757,0.0031186924315989017,0.002919026417657733,0.0026489507872611284,0.002464898396283388,0.002289180876687169,0.0021311077289283276,0.001985509879887104,0.001856512506492436,0.0017326930537819862,0.0016417184378951788,0.001537879346869886,0.0014559816336259246,0.0013691416243091226,0.0012948105577379465,0.0012365439906716347,0.0011702963383868337,0.0011126459576189518,0.0010576641652733088,0.001007907441817224,0.0009630577405914664,0.0009203601512126625,0.0008759670308791101,0.0008396886405535042,0.0008047321462072432,0.000771172228269279,0.0007403009803965688,0.0007118615321815014,0.0006847764598205686,0.0006580826593562961,0.000631828501354903,0.000609121285378933,0.0005870815948583186,0.0005662352778017521,0.0005459855310618877,0.0005280505283735693,0.0005090247723273933,0.0004921042127534747,0.0004754909605253488,0.00045977532863616943,0.0004454033332876861,0.0004308798525016755,0.0004171004402451217,0.0004051680734846741,0.0003919831069651991,0.0003801917773671448,0.00036965872277505696,0.00035853954614140093,0.00034763661096803844,0.00033757268101908267,0.0003282264806330204,0.0003190303687006235,0.00030992840765975416,0.0003018777642864734,0.0002938395773526281,0.0002856341016013175,0.0002785150718409568,0.0002709565742406994,0.0002645375789143145,0.0002573125238995999,0.00025015175924636424,0.00024389168538618833,0.00023820961359888315,0.00023209831852000207,0.0002266898809466511,0.00022111760335974395,0.00021626752277370542,0.00021092858514748514,0.00020590447820723057,0.00020127561583649367,0.00019601463282015175,0.00019172599422745407,0.00018753696349449456,0.00018315136549063027,0.00017912818293552846,0.00017539862892590463,0.00017150545318145305,0.00016792445967439562,0.00016397584113292396,0.00016053927538450807,0.000157317757839337,0.00015381483535747975,0.00015049533976707608,0.00014721779734827578,0.0001444778754375875,0.0001414735015714541,0.00013861774641554803,0.00013576917990576476,0.0001330691738985479,0.00013036542804911733,0.0001278902927879244,0.0001253312948392704,0.0001228973997058347,0.00012060402514180169,0.00011822118540294468,0.00011602445738390088,0.00011377545888535678,0.00011160603753523901,0.00010945074609480798,0.00010764999751700088,0.00010548635327722877,0.00010361162276240066,0.00010164004197577015,9.979234891943634e-05,9.794569632504135e-05,9.634297748561949e-05,9.471880184719339e-05,9.301622776547447e-05,9.132171544479206e-05,8.97463396540843e-05,8.79626750247553e-05,8.667634392622858e-05,8.500332478433847e-05,8.353120210813358e-05,8.219516166718677e-05,8.079810504568741e-05,7.938502676552162e-05,7.798139267833903e-05,7.676614040974528e-05,7.556022319477051e-05,7.42156189517118e-05,7.293371163541451e-05,7.176811050157994e-05,7.068795093800873e-05,6.949788075871766e-05,6.848375051049516e-05,6.72961978125386e-05,6.621545617235824e-05,6.517866859212518e-05,6.409654451999813e-05,6.311730248853564e-05,6.212959124241024e-05,6.119676254456863e-05,6.021869558026083e-05,5.929850522079505e-05,5.836495984112844e-05,5.747286195401102e-05,5.665425123879686e-05,5.576084367930889e-05,5.4945652664173394e-05,5.410174708231352e-05,5.3342784667620435e-05,5.250372487353161e-05,5.172525197849609e-05,5.093914660392329e-05,5.02133734698873e-05,4.951318624080159e-05,4.874138903687708e-05,4.8034049541456625e-05,4.735609400086105e-05,4.666365202865563e-05,4.59684306406416e-05,4.5353681343840435e-05,4.469027044251561e-05,4.402566992212087e-05,4.3384665332268924e-05,4.277694824850187e-05,4.217998866806738e-05,4.1614199290052056e-05,4.101008744328283e-05,4.043358421768062e-05,3.989688048022799e-05,3.9351660234387964e-05,3.878000643453561e-05,3.831313370028511e-05,3.773136268137023e-05,3.7249232264002785e-05,3.675325933727436e-05,3.61897109542042e-05,3.571910201571882e-05,3.5251519875600934e-05,3.476683923508972e-05,3.4330707421759143e-05,3.385282980161719e-05,3.344442666275427e-05
1,4.096283435821533,2.7147252559661865,2.5579230785369873,2.3889312744140625,2.1526618003845215,1.799460530281067,1.3699647188186646,0.9460392594337463,0.54572594165802,0.28057190775871277,0.12900549173355103,0.05622945353388786,0.03116733208298683,0.019889019429683685,0.01415193174034357,0.011010321788489819,0.00916619785130024,0.007545643951743841,0.0065065971575677395,0.005800179671496153,0.00506627419963479,0.004511759616434574,0.0040417383424937725,0.00367560563609004,0.003356765955686569,0.002980658784508705,0.0027596233412623405,0.0025283910799771547,0.002340169856324792,0.002172299660742283,0.0020184472668915987,0.0018841876881197095,0.001739523489959538,0.0016273811925202608,0.0015325044514611363,0.0014341616770252585,0.0013526553520932794,0.0012865549651905894,0.0012072691461071372,0.0011460526147857308,0.0010905053932219744,0.0010292173828929663,0.0009758280357345939,0.0009349282481707633,0.0008838179055601358,0.0008450808236375451,0.0008071690099313855,0.0007701247814111412,0.0007383106858469546,0.0007040617638267577,0.0006765070138499141,0.0006473614485003054,0.0006220339564606547,0.0005977629916742444,0.0005764737725257874,0.0005515302764251828,0.0005314168520271778,0.0005111944628879428,0.0004931752919219434,0.0004759726289194077,0.0004599062376655638,0.0004427064850460738,0.00042855727951973677,0.000414336274843663,0.000401295576011762,0.00038754913839511573,0.00037574698217213154,0.00036409986205399036,0.0003515901626087725,0.0003406432515475899,0.00033141253516077995,0.0003207407135050744,0.00031196107738651335,0.00030305731343105435,0.00029392162105068564,0.0002854451595339924,0.00027782435063272715,0.00026948796585202217,0.0002629842492751777,0.0002561019209679216,0.00024876632960513234,0.00024174226564355195,0.00023576289822813123,0.00022972650185693055,0.00022389148944057524,0.00021797332738060504,0.0002130561915691942,0.0002072646893793717,0.0002019537059823051,0.00019719786359928548,0.00019234901992604136,0.00018804527644533664,0.00018364793504588306,0.00017912659677676857,0.00017517765809316188,0.00017113111971411854,0.00016710578347556293,0.00016335347027052194,0.00015954776608850807,0.0001560128730488941,0.00015238142805173993,0.00014934736827854067,0.00014603286399506032,0.0001428115356247872,0.00013978831702843308,0.0001369181409245357,0.00013395852874964476,0.00013148227299097925,0.00012858114496339113,0.0001259286073036492,0.00012336969666648656,0.000120832264656201,0.00011842542880913243,0.00011607542546698824,0.00011377045302651823,0.00011154815001646057,0.0001092400707420893,0.00010717306577134877,0.00010514140740269795,0.00010318686690879986,0.000101231322332751,9.9262768344488e-05,9.730475721880794e-05,9.557111479807645e-05,9.38532903091982e-05,9.19944723136723e-05,9.040083386935294e-05,8.8880980911199e-05,8.720566256670281e-05,8.567191252950579e-05,8.407705900026485e-05,8.284884825116023e-05,8.110125781968236e-05,7.976529013831168e-05,7.834125426597893e-05,7.698198896832764e-05,7.57429952500388e-05,7.447405369020998e-05,7.314268441405147e-05,7.18615046935156e-05,7.074048335198313e-05,6.946046778466552e-05,6.829990888945758e-05,6.722362013533711e-05,6.605406088056043e-05,6.499115261249244e-05,6.397583638317883e-05,6.282844697125256e-05,6.182293873280287e-05,6.085155109758489e-05,5.9855636209249496e-05,5.8879573771264404e-05,5.7948389439843595e-05,5.7006087445188314e-05,5.6124801631085575e-05,5.525345477508381e-05,5.457385123008862e-05,5.3578329243464395e-05,5.2734583732672036e-05,5.18893102707807e-05,5.1108712796121836e-05,5.03956398461014e-05,4.9602742365095764e-05,4.884448935627006e-05,4.812733823200688e-05,4.739918585983105e-05,4.6714485506527126e-05,4.6036348066991195e-05,4.536205960903317e-05,4.4623204303206876e-05,4.396948133944534e-05,4.338039070717059e-05,4.2677715100580826e-05,4.2079460399691015e-05,4.1521296225255355e-05,4.092042945558205e-05,4.03080448450055e-05,3.97175936086569e-05,3.9117028791224584e-05,3.859326898236759e-05,3.8048459828132764e-05,3.74821902369149e-05,3.7004017940489575e-05,3.648156052804552e-05,3.596885289880447e-05,3.54889125446789e-05,3.494651900837198e-05,3.44816580764018e-05,3.398480112082325e-05,3.354689397383481e-05,3.3084270398830995e-05,3.2601059501757845e-05,3.216960612917319e-05,3.173766526742838e-05,3.131300400127657e-05,3.0895382224116474e-05,3.0460189009318128e-05,3.004392419825308e-05,2.9662123779417016e-05,2.9268978323671035e-05
2,4.106836318969727,2.735530138015747,2.5741424560546875,2.4249625205993652,2.1978721618652344,1.8999218940734863,1.5247021913528442,1.0607218742370605,0.6409199833869934,0.3674089312553406,0.18293994665145874,0.07971448451280594,0.03699599578976631,0.023812875151634216,0.01672721467912197,0.012980472296476364,0.010661755688488483,0.008893655613064766,0.007685230113565922,0.00668936874717474,0.005820379592478275,0.005137708969414234,0.004590950906276703,0.0041815913282334805,0.003798786550760269,0.003459447994828224,0.0031723955180495977,0.0029258346185088158,0.0026826246175915003,0.002489154925569892,0.002327563939616084,0.002167841186746955,0.0020216964185237885,0.0018909869249910116,0.0017774739535525441,0.0016632337355986238,0.0015657092444598675,0.0014841731172055006,0.0013962497469037771,0.0013209737371653318,0.0012550958199426532,0.00119598931632936,0.0011349968845024705,0.0010740889701992273,0.0010232928907498717,0.0009794399375095963,0.0009329271852038801,0.0008929107571020722,0.0008554712403565645,0.0008192246896214783,0.0007875130977481604,0.0007537561468780041,0.0007177743245847523,0.0006922844331711531,0.0006667542038485408,0.0006419136771000922,0.0006199159543029964,0.0005945155280642211,0.0005715570296160877,0.0005523491417989135,0.0005325939855538309,0.0005150718498043716,0.0004973338218405843,0.0004798796435352415,0.0004641711711883545,0.00044816560694016516,0.0004339168663136661,0.0004194893117528409,0.00040706139407120645,0.00039567664498463273,0.0003837438707705587,0.0003714865888468921,0.0003600889176595956,0.0003496445424389094,0.00033953951788134873,0.0003304701531305909,0.00032155358348973095,0.00031273564673028886,0.0003036592388525605,0.00029550050385296345,0.00028774439124390483,0.00028037713491357863,0.0002724858350120485,0.0002653961710166186,0.0002579853171482682,0.00025197991635650396,0.00024534238036721945,0.0002393701724940911,0.00023322241031564772,0.00022749930212739855,0.0002221299655502662,0.00021709738939534873,0.00021144657512195408,0.0002066008310066536,0.0002016914659179747,0.00019703208818100393,0.00019250161130912602,0.0001883612567326054,0.00018392587662674487,0.00017982657300308347,0.00017587663023732603,0.00017203841707669199,0.00016848644008859992,0.00016432706615887582,0.00016090503777377307,0.00015750226157251745,0.0001541492820251733,0.00015107798390090466,0.000147846425534226,0.00014472886687144637,0.0001420018816133961,0.00013916137686464936,0.00013638527889270335,0.00013353530084714293,0.0001307231286773458,0.0001281803852180019,0.00012572549167089164,0.00012336326471995562,0.00012083604087820277,0.00011834136239485815,0.00011625307524809614,0.00011397725029382855,0.00011188914504600689,0.0001098527864087373,0.00010770824155770242,0.00010576904605841264,0.0001037242982420139,0.00010203596320934594,0.00010005404328694567,9.836513345362619e-05,9.687437704997137e-05,9.47471780818887e-05,9.314406634075567e-05,9.141244663624093e-05,8.980908751254901e-05,8.830701699480414e-05,8.6650084995199e-05,8.521555719198659e-05,8.385992259718478e-05,8.236707071773708e-05,8.107825851766393e-05,7.954400643939152e-05,7.825275679351762e-05,7.701207505306229e-05,7.563931285403669e-05,7.444296352332458e-05,7.319192809518427e-05,7.1926653617993e-05,7.077383634168655e-05,6.96510323905386e-05,6.849412602605298e-05,6.740024400642142e-05,6.640302308369428e-05,6.526302604470402e-05,6.428945198422298e-05,6.327899609459564e-05,6.226952973520383e-05,6.131367990747094e-05,6.03132757532876e-05,5.9453861467773095e-05,5.8494897530181333e-05,5.763065200881101e-05,5.6695913372095674e-05,5.5900240113260224e-05,5.496349331224337e-05,5.4199939768295735e-05,5.3340470913099125e-05,5.255129508441314e-05,5.182733366382308e-05,5.1015886128880084e-05,5.021677861805074e-05,4.946391345583834e-05,4.8787740524858236e-05,4.805685966857709e-05,4.738978168461472e-05,4.671738497563638e-05,4.599318708642386e-05,4.5361350203165784e-05,4.472229556995444e-05,4.404635546961799e-05,4.343124237493612e-05,4.279840140952729e-05,4.221421841066331e-05,4.1654930100776255e-05,4.098085992154665e-05,4.045941386721097e-05,3.987398304161616e-05,3.933893458452076e-05,3.8737129216315225e-05,3.825789099209942e-05,3.767057569348253e-05,3.720611857715994e-05,3.669271245598793e-05,3.614902016124688e-05,3.56810814992059e-05,3.5160035622539e-05,3.472083335509524e-05,3.426057446631603e-05,3.377323810127564e-05,3.334496432216838e-05
3,4.162467956542969,2.69793701171875,2.574432373046875,2.4189798831939697,2.2111968994140625,1.899443507194519,1.4917744398117065,1.0024771690368652,0.593134880065918,0.3026793599128723,0.14283213019371033,0.06642995774745941,0.034134235233068466,0.02038411796092987,0.0144191300496459,0.011293981224298477,0.009190133772790432,0.007739854045212269,0.006592056713998318,0.0057514505460858345,0.005102864466607571,0.004521030001342297,0.004092616960406303,0.0036843661218881607,0.0033476853277534246,0.0030534800607711077,0.0027942312881350517,0.0025796436239033937,0.0023854346945881844,0.0022178329527378082,0.00205020303837955,0.0019099810160696507,0.0017909115413203835,0.0016827009385451674,0.0015723281539976597,0.0014830371364951134,0.0013892437564209104,0.001311424421146512,0.001239200122654438,0.0011760430643334985,0.001115521416068077,0.001064689364284277,0.00100726040545851,0.0009602646459825337,0.0009099625167436898,0.0008708849782124162,0.0008293174323625863,0.0007936077890917659,0.0007634929497726262,0.0007304080063477159,0.0006973537383601069,0.0006707972497679293,0.0006437635747715831,0.0006193339941091835,0.0005953336367383599,0.0005734180449508131,0.0005539983394555748,0.0005330817657522857,0.000512982252985239,0.0004951767041347921,0.0004762845055665821,0.0004603712586686015,0.00044515286572277546,0.0004302971065044403,0.0004161800316069275,0.00040413474198430777,0.00039091717917472124,0.0003781953128054738,0.000366376421879977,0.0003551693807821721,0.0003445509064476937,0.00033396229264326394,0.00032500765519216657,0.0003149930853396654,0.00030679968767799437,0.00029771585832349956,0.00028898019809275866,0.000280711188679561,0.00027291884180158377,0.0002657861332409084,0.0002586064219940454,0.0002515939122531563,0.00024537325953133404,0.00023928270093165338,0.000232997554121539,0.00022688007447868586,0.0002212964027421549,0.0002158323477488011,0.00021058465063106269,0.00020587736798916012,0.00020075337670277804,0.00019543379312381148,0.00019070209236815572,0.0001860802440205589,0.00018210658163297921,0.0001779127196641639,0.00017391589062754065,0.00016996693739201874,0.0001659710396779701,0.00016226993466261774,0.00015886568871792406,0.0001555105991428718,0.00015184388030320406,0.00014879160153213888,0.0001455701276427135,0.0001423249050276354,0.0001392356789438054,0.00013662903802469373,0.00013367824431043118,0.00013076004688628018,0.00012810279440600425,0.00012548589438665658,0.0001230464258696884,0.000120684111607261,0.00011814200115622953,0.00011575985263334587,0.00011347426334396005,0.00011132271174574271,0.00010929335985565558,0.00010732932423707098,0.00010520224168431014,0.00010343169560655951,0.00010105989349540323,9.928040526574478e-05,9.736634092405438e-05,9.563375351717696e-05,9.389426122652367e-05,9.221139771398157e-05,9.055341070052236e-05,8.889733726391569e-05,8.738104224903509e-05,8.583785529481247e-05,8.418827201239765e-05,8.282071212306619e-05,8.132056245813146e-05,7.986963464645669e-05,7.853021088521928e-05,7.718513370491564e-05,7.595986971864477e-05,7.458379695890471e-05,7.330426888074726e-05,7.215073856059462e-05,7.091110455803573e-05,6.974668940529227e-05,6.850145291537046e-05,6.733524787705392e-05,6.63269092910923e-05,6.524781201733276e-05,6.41424412606284e-05,6.314671190921217e-05,6.210170249687508e-05,6.108632805990055e-05,6.009230492054485e-05,5.91315001656767e-05,5.82647517148871e-05,5.7292952988063917e-05,5.644999328069389e-05,5.5560070904903114e-05,5.472128395922482e-05,5.380222137318924e-05,5.304108344716951e-05,5.226024950388819e-05,5.143914313521236e-05,5.0637561798794195e-05,4.99037305417005e-05,4.921146683045663e-05,4.836116204387508e-05,4.76630921184551e-05,4.702710793935694e-05,4.634975266526453e-05,4.5605163904838264e-05,4.497514964896254e-05,4.429932596394792e-05,4.370561509858817e-05,4.3081407056888565e-05,4.240209091221914e-05,4.181346230325289e-05,4.1185052396031097e-05,4.061180879944004e-05,4.0065697248792276e-05,3.941522663808428e-05,3.893789107678458e-05,3.845711034955457e-05,3.788682442973368e-05,3.7295714719220996e-05,3.680093141156249e-05,3.626759280450642e-05,3.575660230126232e-05,3.5314613342052326e-05,3.4803095331881195e-05,3.431020013522357e-05,3.387193282833323e-05,3.3412743505323306e-05,3.295502392575145e-05,3.2510968594579026e-05,3.208080670447089e-05,3.16663172270637e-05,3.1232488254318014e-05,3.081473914789967e-05,3.0392791813937947e-05
4,4.302549362182617,2.7468814849853516,2.584622621536255,2.442809581756592,2.246497869491577,1.9490772485733032,1.5936928987503052,1.1321439743041992,0.7205187082290649,0.40639498829841614,0.1909608095884323,0.08798965066671371,0.046128809452056885,0.027141103520989418,0.01815565675497055,0.013774150982499123,0.011129838414490223,0.009226367808878422,0.007810468319803476,0.006824901327490807,0.005923261865973473,0.005344148259609938,0.004707690328359604,0.004249285906553268,0.0038308841176331043,0.003491191193461418,0.003188752569258213,0.0029292807448655367,0.0027118052821606398,0.002513469895347953,0.0023482104297727346,0.0021654467564076185,0.002024458721280098,0.001897067646495998,0.0017782468348741531,0.0016770381480455399,0.0015769003657624125,0.0014927539741620421,0.0014155087992548943,0.0013344804756343365,0.0012625306844711304,0.0011959834955632687,0.0011472790502011776,0.0010884617222473025,0.0010302646551281214,0.0009882333688437939,0.0009414964588358998,0.0008995989919640124,0.0008586624171584845,0.0008240689639933407,0.0007886224193498492,0.0007577949436381459,0.0007266777101904154,0.0006966530345380306,0.0006710981833748519,0.0006461349548771977,0.0006213891319930553,0.0005986415199004114,0.0005767912371084094,0.0005567708285525441,0.0005371756851673126,0.0005173143581487238,0.0004994931514374912,0.00048341270303353667,0.0004677829856518656,0.0004538657085504383,0.00043869888759218156,0.00042485553422011435,0.0004119187069591135,0.00039826190914027393,0.00038677817792631686,0.0003750018368009478,0.0003643225063569844,0.0003539301978889853,0.0003432609955780208,0.000333453033817932,0.0003244350082240999,0.00031588017009198666,0.0003058840229641646,0.0002970747300423682,0.00028947173268534243,0.0002818462671712041,0.00027476262766867876,0.00026687822537496686,0.00026025480474345386,0.0002540196874178946,0.00024724597460590303,0.00024095863045658916,0.00023530732141807675,0.000229664146900177,0.00022408262884709984,0.0002186961646657437,0.00021359079983085394,0.0002084481093334034,0.00020404442329891026,0.00019909895490854979,0.00019425938080530614,0.00018976468709297478,0.00018545525381341577,0.00018158418242819607,0.00017755664885044098,0.00017363116785418242,0.00017001356172841042,0.00016635865904390812,0.0001629047910682857,0.0001592374756000936,0.00015612828428857028,0.00015289061411749572,0.000149932544445619,0.00014680734602734447,0.00014356149767991155,0.00014094354992266744,0.00013767158088739961,0.00013482346548698843,0.0001323732576565817,0.00012974401761312038,0.00012725006672553718,0.0001247521722689271,0.0001222991122631356,0.00012002307630609721,0.00011771384015446529,0.00011552964133443311,0.00011332450958434492,0.000111448134703096,0.0001092006714316085,0.00010716888209572062,0.00010528437269385904,0.0001033781809383072,0.00010143113468075171,9.962682815967128e-05,9.792067430680618e-05,9.620616037864238e-05,9.446380863664672e-05,9.287278953706846e-05,9.13026524358429e-05,8.950824121711776e-05,8.802159572951496e-05,8.648478979011998e-05,8.507262100465596e-05,8.363412052858621e-05,8.22810034151189e-05,8.098009129753336e-05,7.957116031320766e-05,7.817753066774458e-05,7.690736674703658e-05,7.558498327853158e-05,7.448536780430004e-05,7.324440230149776e-05,7.200068648671731e-05,7.086272671585903e-05,6.978952296776697e-05,6.856237450847402e-05,6.755938375135884e-05,6.642304651904851e-05,6.544266943819821e-05,6.439450226025656e-05,6.345688598230481e-05,6.240029324544594e-05,6.153397407615557e-05,6.052800381439738e-05,5.961621354799718e-05,5.881546894670464e-05,5.778306149295531e-05,5.68998402741272e-05,5.6049120757961646e-05,5.522685023606755e-05,5.4475345677929e-05,5.363923264667392e-05,5.2772786148125306e-05,5.2075385610805824e-05,5.122253787703812e-05,5.060660987510346e-05,4.979290679330006e-05,4.9111462431028485e-05,4.838780660065822e-05,4.770127998199314e-05,4.699334749602713e-05,4.6322602429427207e-05,4.5704669901169837e-05,4.5046810555504635e-05,4.43453827756457e-05,4.3744996219174936e-05,4.311168231652118e-05,4.2539792048046365e-05,4.200427429168485e-05,4.136948336963542e-05,4.078701022081077e-05,4.020205597043969e-05,3.964329880545847e-05,3.915862544090487e-05,3.859832577290945e-05,3.809703775914386e-05,3.759344690479338e-05,3.7054665881441906e-05,3.657921843114309e-05,3.604836456361227e-05,3.556930460035801e-05,3.506960638333112e-05,3.463229222688824e-05,3.4130054700654e-05
