,0,1,2,3,4,5,6,7,8,9,10,11,12,13,14,15,16,17,18,19,20,21,22,23,24,25,26,27,28,29,30,31,32,33,34,35,36,37,38,39,40,41,42,43,44,45,46,47,48,49,50,51,52,53,54,55,56,57,58,59,60,61,62,63,64,65,66,67,68,69,70,71,72,73,74,75,76,77,78,79,80,81,82,83,84,85,86,87,88,89,90,91,92,93,94,95,96,97,98,99,100,101,102,103,104,105,106,107,108,109,110,111,112,113,114,115,116,117,118,119,120,121,122,123,124,125,126,127,128,129,130,131,132,133,134,135,136,137,138,139,140,141,142,143,144,145,146,147,148,149,150,151,152,153,154,155,156,157,158,159,160,161,162,163,164,165,166,167,168,169,170,171,172,173,174,175,176,177,178,179,180,181,182,183,184,185,186,187,188,189,190,191,192,193,194,195,196,197,198,199
0,5.122917175292969,3.1748015880584717,2.631202459335327,2.4678521156311035,2.2962989807128906,2.059645414352417,1.7705715894699097,1.4244513511657715,1.041696310043335,0.690826952457428,0.40957313776016235,0.22386424243450165,0.11563600599765778,0.06199397146701813,0.03979085758328438,0.027200477197766304,0.01956125535070896,0.015715444460511208,0.012608597986400127,0.010554356500506401,0.009180154651403427,0.008215399459004402,0.007328877691179514,0.006623697932809591,0.005931906867772341,0.00539405457675457,0.0048983339220285416,0.004535437561571598,0.0041619399562478065,0.003885250072926283,0.0036476014647632837,0.0034001434687525034,0.0031683503184467554,0.0029801519121974707,0.0027893122751265764,0.0026431006845086813,0.002482625422999263,0.002357381395995617,0.00222951197065413,0.002121347701177001,0.002014988102018833,0.0019176132045686245,0.0018195646116510034,0.0017401868244633079,0.0016588704893365502,0.001586926868185401,0.0015170341357588768,0.0014586495235562325,0.0013930103741586208,0.001338310888968408,0.0012870872160419822,0.0012375484220683575,0.0011959192343056202,0.001147362869232893,0.0011054291389882565,0.001072205719538033,0.0010310322977602482,0.0009932488901540637,0.0009606493986211717,0.0009293472394347191,0.0008979011327028275,0.0008696094155311584,0.0008411401067860425,0.0008154206443578005,0.0007913201698102057,0.0007664969307370484,0.0007436605519615114,0.0007214827928692102,0.0007026628591120243,0.0006801455747336149,0.000661589961964637,0.0006429391796700656,0.0006259023793973029,0.0006101387552917004,0.0005929709877818823,0.0005766960675828159,0.0005611061351373792,0.0005478155799210072,0.0005337925394997001,0.0005199831794016063,0.0005083581199869514,0.000495010579470545,0.00048395831254310906,0.000471374427434057,0.0004602739354595542,0.0004496005130931735,0.0004395068099256605,0.00042909456533379853,0.0004200764815323055,0.0004103151150047779,0.0004011891724076122,0.0003922313917428255,0.0003838057164102793,0.00037570815766230226,0.00036764872493222356,0.00035980198299512267,0.0003523888299241662,0.0003449970972724259,0.00033794372575357556,0.0003317240043543279,0.00032432650914415717,0.0003183867083862424,0.00031201972160488367,0.0003055911511182785,0.00029956502839922905,0.0002942691498901695,0.00028835522243753076,0.0002837895299308002,0.00027839880203828216,0.0002731665736064315,0.0002677202573977411,0.00026300078025087714,0.0002582090673968196,0.00025358248967677355,0.0002490985789336264,0.0002445493300911039,0.00024023752484936267,0.00023626413894817233,0.0002323602675460279,0.00022835753043182194,0.00022445229114964604,0.00022065812663640827,0.00021697634656447917,0.0002132486697519198,0.00020995228260289878,0.00020630337530747056,0.0002030007162829861,0.00019963894737884402,0.0001967553689610213,0.00019346170302014798,0.0001902905642054975,0.00018749450100585818,0.00018442577857058495,0.00018162460764870048,0.00017886183923110366,0.0001761714374879375,0.0001732378441374749,0.00017072273476514965,0.00016824853082653135,0.0001656607782933861,0.00016333865642081946,0.00016088594566099346,0.000158668975927867,0.000156322363181971,0.0001540436496725306,0.0001518396456958726,0.00014965313312131912,0.00014745905355084687,0.00014541852578986436,0.0001433988072676584,0.00014136826212052256,0.00013951590517535806,0.00013758767454419285,0.0001358112203888595,0.00013376840797718614,0.00013192420010454953,0.00013019762991461903,0.00012837254325859249,0.00012660872016567737,0.00012496746785473078,0.00012329491437412798,0.00012167953536845744,0.00012004925520159304,0.00011857415665872395,0.00011706212535500526,0.00011550262570381165,0.00011403147072996944,0.00011261875624768436,0.00011118160909973085,0.00010976693010888994,0.00010829433449544013,0.00010707126784836873,0.00010561975068412721,0.00010431763075757772,0.00010315136023564264,0.00010190148168476298,0.00010061023203888908,9.936119749909267e-05,9.814006625674665e-05,9.70091568888165e-05,9.582520578987896e-05,9.473218960920349e-05,9.354179201181978e-05,9.244534157915041e-05,9.138212044490501e-05,9.033584501594305e-05,8.928140596253797e-05,8.827806595945731e-05,8.725145744392648e-05,8.62026063259691e-05,8.517029345966876e-05,8.425904525211081e-05,8.333549340022728e-05,8.232533582486212e-05,8.141862781485543e-05,8.054038335103542e-05,7.969120633788407e-05,7.876329618738964e-05,7.786819332977757e-05,7.700575952185318e-05
1,4.563033580780029,2.891913414001465,2.575021982192993,2.3830108642578125,2.1780004501342773,1.8844640254974365,1.5391582250595093,1.1612547636032104,0.8158247470855713,0.5238111019134521,0.2815513014793396,0.15109361708164215,0.0748441219329834,0.04439269006252289,0.028018951416015625,0.019315823912620544,0.014738180674612522,0.011945664882659912,0.010261018760502338,0.00881385151296854,0.007802041247487068,0.006871405988931656,0.006182489916682243,0.005618507042527199,0.005113145802170038,0.004709593486040831,0.00433566328138113,0.004046013578772545,0.0037351639475673437,0.003494689939543605,0.003262127283960581,0.003065230790525675,0.00287744402885437,0.002703938167542219,0.002541112247854471,0.0023935551289469004,0.0022729686461389065,0.002151068300008774,0.0020436840131878853,0.0019342278828844428,0.0018430246273055673,0.0017551141791045666,0.0016742526786401868,0.0015961324097588658,0.0015268952120095491,0.0014642520109191537,0.0014003374380990863,0.0013358785072341561,0.001285485108383,0.0012298361398279667,0.001183292712084949,0.001139744301326573,0.0010943873785436153,0.001059145200997591,0.0010192638728767633,0.0009804022265598178,0.0009473927784711123,0.0009141180198639631,0.0008827311103232205,0.0008539570262655616,0.0008263831259682775,0.0007989800069481134,0.0007753737736493349,0.0007492892327718437,0.0007273149094544351,0.0007044314406812191,0.0006841898430138826,0.0006642175139859319,0.0006441533914767206,0.0006266217678785324,0.000609479146078229,0.0005929991020821035,0.0005757792387157679,0.0005603211466223001,0.0005454719648696482,0.0005317121976986527,0.0005164597532711923,0.0005036115180701017,0.0004910173593088984,0.000479652953799814,0.0004672936338465661,0.000456301640952006,0.00044403571519069374,0.0004335163102950901,0.00042368180584162474,0.0004132527392357588,0.0004040935600642115,0.00039460326661355793,0.0003857721167150885,0.000376547803170979,0.00036834433558396995,0.0003607021935749799,0.00035250617656856775,0.0003450123767834157,0.00033748551504686475,0.00033053584047593176,0.00032394551089964807,0.0003173665318172425,0.00031064351787790656,0.00030457775574177504,0.0002981125144287944,0.0002922191342804581,0.0002862866094801575,0.00028105804813094437,0.00027578536537475884,0.0002703478676266968,0.00026486991555429995,0.0002599018334876746,0.00025483747594989836,0.00025042804190889,0.00024553484399802983,0.00024137133732438087,0.0002369242429267615,0.00023239401343744248,0.00022837292635813355,0.00022455051657743752,0.0002205362543463707,0.00021659277263097465,0.00021274917526170611,0.00020912928448524326,0.0002055447403108701,0.00020217764540575445,0.00019878309103660285,0.0001953469472937286,0.00019212387269362807,0.00018895008543040603,0.0001858358009485528,0.00018277116760145873,0.0001798264856915921,0.00017702650802675635,0.0001746116322465241,0.00017153397493530065,0.00016900741320569068,0.00016627507284283638,0.00016353439423255622,0.0001609405444469303,0.00015858512779232115,0.00015618500765413046,0.0001539777294965461,0.00015157049347180873,0.0001493040326749906,0.0001469670096412301,0.0001448957045795396,0.0001428591931471601,0.00014072336489334702,0.00013878551544621587,0.00013668942847289145,0.00013471227430272847,0.00013295320968609303,0.0001310252700932324,0.00012914383842144161,0.00012728750880341977,0.000125607693917118,0.00012380992120597512,0.00012218211486469954,0.0001204487998620607,0.00011884675768669695,0.00011724172509275377,0.00011576015094760805,0.00011420597729738802,0.00011265400826232508,0.00011115614324808121,0.00010969697905238718,0.00010830466635525227,0.00010684704466257244,0.00010555071639828384,0.0001041837313096039,0.00010281568393111229,0.00010152558388654143,0.00010026297968579456,9.9017663160339e-05,9.775153012014925e-05,9.650600259192288e-05,9.527246584184468e-05,9.406076424056664e-05,9.295097697759047e-05,9.179254993796349e-05,9.067230712389573e-05,8.954202348832041e-05,8.850164886098355e-05,8.743333455640823e-05,8.639659790787846e-05,8.540981798432767e-05,8.439033263130113e-05,8.335916936630383e-05,8.231145329773426e-05,8.136792166624218e-05,8.040586544666439e-05,7.956878835102543e-05,7.85801385063678e-05,7.765324698993936e-05,7.685819582547992e-05,7.591176108689979e-05,7.502325752284378e-05,7.415463187498972e-05,7.337240822380409e-05,7.250873750308529e-05,7.169380114646628e-05,7.086448749760166e-05,7.011970592429861e-05
2,5.391476154327393,3.2557036876678467,2.716494560241699,2.5372447967529297,2.400322914123535,2.2190358638763428,1.985687017440796,1.6951515674591064,1.3621411323547363,1.0098850727081299,0.6368834972381592,0.36381182074546814,0.1969919204711914,0.10877175629138947,0.05885057896375656,0.03638674318790436,0.0246898103505373,0.018090004101395607,0.014797896146774292,0.012182993814349174,0.010274309664964676,0.00892210379242897,0.007811618968844414,0.007076899986714125,0.006407750770449638,0.005860139150172472,0.005335872061550617,0.004863034933805466,0.004493925720453262,0.004164809826761484,0.0038689763750880957,0.0036104086320847273,0.0033790278248488903,0.0031780072022229433,0.0029672475066035986,0.0027981826569885015,0.002634563483297825,0.0024886284954845905,0.002361284103244543,0.0022254015784710646,0.002119814744219184,0.002012828830629587,0.0019180378876626492,0.001829371671192348,0.001738692750222981,0.0016629811143502593,0.0015889492351561785,0.001520336838439107,0.0014574896777048707,0.0013970056315883994,0.00134250707924366,0.0012889864156022668,0.0012381990673020482,0.0011921082623302937,0.0011451607570052147,0.0011049376334995031,0.0010666035814210773,0.0010284904856234789,0.0009910393273457885,0.0009588335524313152,0.0009282213868573308,0.000893343472853303,0.0008655045530758798,0.0008388242567889392,0.0008108961046673357,0.0007866381201893091,0.000760429713409394,0.0007369306404143572,0.0007134692277759314,0.0006926024798303843,0.0006718763615936041,0.0006533305277116597,0.0006369344191625714,0.0006176704773679376,0.0005999037530273199,0.0005826751585118473,0.0005662150215357542,0.0005524285370483994,0.000537229934707284,0.0005226439097896218,0.0005088073667138815,0.0004956319462507963,0.0004837943415623158,0.0004714155802503228,0.0004599055973812938,0.00044853598228655756,0.0004380370082799345,0.00042756227776408195,0.0004175645299255848,0.0004085345717612654,0.0003986078081652522,0.00038947066059336066,0.0003805371234193444,0.00037264300044626,0.00036394683411344886,0.0003562306519597769,0.00034873621189035475,0.00034133309964090586,0.00033389782765880227,0.0003276095958426595,0.0003204307868145406,0.00031392218079417944,0.0003077617147937417,0.0003011558437719941,0.000294829806080088,0.00028880336321890354,0.00028348746127448976,0.00027770435553975403,0.0002729184052441269,0.00026755512226372957,0.0002627151261549443,0.00025736549287103117,0.00025263376301154494,0.000247957999818027,0.00024291846784763038,0.00023870269069448113,0.00023416437034029514,0.00023038056679069996,0.00022606913989875466,0.0002218359732069075,0.00021824910072609782,0.00021429787739180028,0.00021079019643366337,0.00020726476213894784,0.00020340131595730782,0.0002001235552597791,0.00019668876484502107,0.0001935364562086761,0.00019012308621313423,0.0001873134751804173,0.00018407234165351838,0.00018109257507603616,0.00017810234567150474,0.0001757027639541775,0.0001722418237477541,0.0001697387924650684,0.00016706316091585904,0.00016451877309009433,0.00016197205695789307,0.00015956448623910546,0.00015713371976744384,0.00015465843898709863,0.00015232968144118786,0.0001500257640145719,0.00014776521129533648,0.00014564936282113194,0.00014340010238811374,0.0001414693979313597,0.00013930340355727822,0.0001372750266455114,0.0001354474079562351,0.00013336843403521925,0.00013165976270101964,0.0001296127593377605,0.00012798653915524483,0.00012599810725077987,0.00012428528862074018,0.000122596335131675,0.00012111911200918257,0.00011942229320993647,0.0001175788784166798,0.00011610534420469776,0.0001145682908827439,0.00011304520012345165,0.00011152197112096474,0.00011007037392118946,0.00010863882926059887,0.0001072461818694137,0.00010581112292129546,0.00010442448547109962,0.00010309948993381113,0.00010175732313655317,0.00010052649304270744,9.920255251927301e-05,9.792908531380817e-05,9.667537233326584e-05,9.55121940933168e-05,9.435791434952989e-05,9.311238682130352e-05,9.205732931150123e-05,9.095385030377656e-05,8.980525308288634e-05,8.868852455634624e-05,8.764101221458986e-05,8.657240687170997e-05,8.554474334232509e-05,8.448647713521495e-05,8.343761146534234e-05,8.243635238613933e-05,8.149830682668835e-05,8.057391823967919e-05,7.959757931530476e-05,7.868921966291964e-05,7.776927668601274e-05,7.69558027968742e-05,7.596725481562316e-05,7.511652074754238e-05,7.423371425829828e-05,7.338702562265098e-05,7.264513988047838e-05
3,4.303452491760254,2.8233211040496826,2.5167722702026367,2.33201265335083,2.076724052429199,1.7507306337356567,1.3558008670806885,0.9332486391067505,0.5725193023681641,0.33898842334747314,0.19346673786640167,0.09948385506868362,0.05460111424326897,0.03215750679373741,0.02046741545200348,0.01470827218145132,0.011155195534229279,0.009295132011175156,0.008069767616689205,0.00708911893889308,0.006363793276250362,0.005750075913965702,0.005253166425973177,0.00477985106408596,0.004404026083648205,0.004078547935932875,0.003772091120481491,0.003499354235827923,0.0032820000778883696,0.0030648133251816034,0.0028801013249903917,0.002715134061872959,0.0025420496240258217,0.0024088521022349596,0.002274557249620557,0.002152259461581707,0.002033375669270754,0.0019374708645045757,0.0018457073019817472,0.0017461481038480997,0.0016683648573234677,0.0015917365672066808,0.0015204906230792403,0.0014558946713805199,0.0013927161926403642,0.0013324411120265722,0.0012767482548952103,0.00123037479352206,0.0011794260935857892,0.0011343118967488408,0.0010884108487516642,0.001051439205184579,0.0010112584568560123,0.0009785412112250924,0.0009424499003216624,0.0009083030745387077,0.0008784026722423732,0.0008484613499604166,0.0008199557778425515,0.0007950674626044929,0.0007675563683733344,0.0007429833058267832,0.0007203018758445978,0.0006989455432631075,0.0006763791898265481,0.0006570335826836526,0.0006383953732438385,0.0006195915630087256,0.0006028558709658682,0.0005855204071849585,0.0005697188898921013,0.0005537276156246662,0.0005390486912801862,0.0005252048722468317,0.0005112910293973982,0.0004976657219231129,0.0004842780763283372,0.00047249512863345444,0.0004605084250215441,0.00044899299973621964,0.00043810406350530684,0.0004281810251995921,0.0004173354827798903,0.0004075065953657031,0.00039782602107152343,0.000388447311706841,0.0003797514655161649,0.0003711641766130924,0.00036268000258132815,0.0003544749051798135,0.00034728035097941756,0.0003392313083168119,0.0003322946431580931,0.0003249508736189455,0.00031828158535063267,0.00031168488203547895,0.00030502083245664835,0.0002988376945722848,0.0002931288327090442,0.000286861410131678,0.0002813410828821361,0.0002758423797786236,0.0002702474012039602,0.0002649674715939909,0.00026005037943832576,0.0002550086937844753,0.00025020030443556607,0.0002455777721479535,0.00024095912522170693,0.00023620136198587716,0.0002318032638868317,0.00022772539523430169,0.00022369739599525928,0.00021957939316052943,0.00021556459250859916,0.00021199655020609498,0.0002081666316371411,0.00020441081142053008,0.0002008373267017305,0.00019749907369259745,0.00019399318262003362,0.00019064819207414985,0.00018746119167190045,0.00018456704856362194,0.00018166296649724245,0.00017827170086093247,0.0001756240235408768,0.000172646323335357,0.00016982121451292187,0.0001672545913606882,0.00016456158482469618,0.00016184944252017885,0.00015948512009344995,0.00015695433830842376,0.00015447521582245827,0.00015195203013718128,0.0001496428158134222,0.00014740676851943135,0.0001451981079299003,0.00014308904064819217,0.00014085408474784344,0.00013875256991013885,0.00013680946722161025,0.0001348187797702849,0.00013284491433296353,0.00013098724593874067,0.00012912036618217826,0.0001273315865546465,0.00012536259600892663,0.00012374525249470025,0.00012187683023512363,0.00012016986875096336,0.00011851568706333637,0.00011691788677126169,0.00011540370178408921,0.00011365669342922047,0.00011227895447518677,0.00011067805462516844,0.0001091832818929106,0.00010784038749989122,0.00010625043796608225,0.00010487010149518028,0.00010352348181186244,0.00010213611676590517,0.00010086782276630402,9.957221482181922e-05,9.829688497120515e-05,9.704606782179326e-05,9.57908050622791e-05,9.453947859583423e-05,9.350263280794024e-05,9.215527097694576e-05,9.098898590309545e-05,8.985248859971762e-05,8.882144175004214e-05,8.75868572620675e-05,8.662354957778007e-05,8.556123066227883e-05,8.446376887150109e-05,8.344096568180248e-05,8.248417725553736e-05,8.141835132846609e-05,8.044678543228656e-05,7.953159365570173e-05,7.861608901293948e-05,7.76678862166591e-05,7.672093488508835e-05,7.58399983169511e-05,7.495025784010068e-05,7.407190423691645e-05,7.32587359379977e-05,7.238078978843987e-05,7.152497710194439e-05,7.070095307426527e-05,6.995698640821502e-05,6.916884012753144e-05,6.836052489234135e-05,6.764358840882778e-05,6.68486172799021e-05,6.608686089748517e-05
4,4.2820725440979,2.9907724857330322,2.521475076675415,2.328040838241577,2.0933847427368164,1.7824573516845703,1.4045969247817993,1.0225892066955566,0.6468014121055603,0.34673812985420227,0.16912055015563965,0.08424652367830276,0.048376068472862244,0.030501961708068848,0.02151968702673912,0.015764590352773666,0.012507287785410881,0.010366419330239296,0.008841250091791153,0.007801232859492302,0.006905358750373125,0.006184084340929985,0.005582005716860294,0.005070301704108715,0.004649499896913767,0.004281775560230017,0.003939311020076275,0.0036697660107165575,0.0033963441383093596,0.003176730126142502,0.0029676679987460375,0.0027849061880260706,0.002602335996925831,0.0024466384202241898,0.002318994840607047,0.0021877242252230644,0.0020677384454756975,0.001955316634848714,0.0018674975726753473,0.0017750987317413092,0.0016850916435942054,0.001605598721653223,0.0015296738129109144,0.001467102556489408,0.001401677611283958,0.001336077693849802,0.0012829708866775036,0.0012293835170567036,0.0011804219102486968,0.0011329860426485538,0.0010899757035076618,0.001046575140208006,0.0010070865973830223,0.0009725469280965626,0.0009341706754639745,0.0009042562451213598,0.0008726456435397267,0.0008408373687416315,0.0008136860560625792,0.0007863772916607559,0.0007609984022565186,0.0007356281275860965,0.0007124196272343397,0.0006906192284077406,0.000669775006826967,0.0006495722336694598,0.0006301214452832937,0.0006120344623923302,0.0005943096475675702,0.0005762357614003122,0.0005608003120869398,0.0005438901134766638,0.0005284670041874051,0.0005143958842381835,0.0005011390312574804,0.0004883279325440526,0.000475538574391976,0.0004641048435587436,0.00045164767652750015,0.0004405856889206916,0.000429498846642673,0.0004187160811852664,0.0004087284905835986,0.00039855888462625444,0.00039002293488010764,0.00038080132799223065,0.00037172160227783024,0.00036254795850254595,0.0003544505452737212,0.00034675083588808775,0.000339449878083542,0.00033173136762343347,0.0003252796013839543,0.00031770518398843706,0.00031058595050126314,0.00030428130412474275,0.0002976061077788472,0.00029152806382626295,0.0002853764162864536,0.0002796158951241523,0.0002743290679063648,0.00026849357527680695,0.00026333413552492857,0.00025852478574961424,0.00025335579994134605,0.0002478834067005664,0.00024324505648110062,0.00023821182548999786,0.0002335058234166354,0.00022921209165360779,0.0002252325793961063,0.0002207592478953302,0.00021675891184713691,0.0002128468477167189,0.00020887964637950063,0.0002050103503279388,0.00020140137348789722,0.000198090318008326,0.00019442528719082475,0.00019126207916997373,0.00018792097398545593,0.0001845365040935576,0.00018153093697037548,0.0001784354099072516,0.000175428474904038,0.00017252206453122199,0.00016971353034023196,0.00016709450574126095,0.00016422792396042496,0.00016167788999155164,0.0001590689062140882,0.00015663566591683775,0.00015416012320201844,0.0001518514909548685,0.00014932088379282504,0.00014718540478497744,0.00014483428094536066,0.00014259225281421095,0.00014040469250176102,0.00013833279081154615,0.00013632960326503962,0.00013418348680716008,0.0001322224852629006,0.0001303842873312533,0.00012847631296608597,0.00012663871166296303,0.0001248892513103783,0.0001229721965501085,0.0001213376090163365,0.00011951622582273558,0.00011779727356042713,0.00011614576942520216,0.0001146605281974189,0.00011311892012599856,0.00011153520608786494,0.00010994371405104175,0.00010846506484085694,0.00010697889229049906,0.00010571569873718545,0.00010429116809973493,0.00010279524576617405,0.00010144917177967727,0.00010008797107730061,9.882950689643621e-05,9.752282494446263e-05,9.628277621231973e-05,9.498126746620983e-05,9.380121628055349e-05,9.255816985387355e-05,9.142272756434977e-05,9.031758963828906e-05,8.917106606531888e-05,8.80759471328929e-05,8.698611782165244e-05,8.58968123793602e-05,8.479518874082714e-05,8.38731721160002e-05,8.279047324322164e-05,8.180648001143709e-05,8.088860340649262e-05,7.987316348589957e-05,7.886630919529125e-05,7.796622958267108e-05,7.702557923039421e-05,7.612767512910068e-05,7.520762301282957e-05,7.437355088768527e-05,7.354248373303562e-05,7.261756400112063e-05,7.183522393461317e-05,7.105215627234429e-05,7.019149052212015e-05,6.934965495020151e-05,6.862846203148365e-05,6.783557182643563e-05,6.70801309752278e-05,6.63014070596546e-05,6.558217137353495e-05,6.479631701949984e-05,6.409375055227429e-05
5,5.265345096588135,3.059704303741455,2.633694887161255,2.473243236541748,2.3204596042633057,2.115964651107788,1.888252854347229,1.5619635581970215,1.207238793373108,0.8767887353897095,0.595065176486969,0.3401620388031006,0.17971616983413696,0.10214658826589584,0.056110773235559464,0.037845537066459656,0.026037877425551414,0.018838994204998016,0.014768538996577263,0.01240550633519888,0.010886188596487045,0.009552882052958012,0.008433597162365913,0.007451117038726807,0.006663265638053417,0.006042019464075565,0.005548758432269096,0.005139061249792576,0.004721361678093672,0.004360058344900608,0.004078717902302742,0.0037866767961531878,0.0035335677675902843,0.0033121490851044655,0.00311244186013937,0.0029248229693621397,0.002766186371445656,0.0025993064045906067,0.002463194541633129,0.002334002638235688,0.002220278372988105,0.002108172746375203,0.0020012592431157827,0.0019087099935859442,0.001814483548514545,0.0017333743162453175,0.0016560428775846958,0.001587183098308742,0.0015195873565971851,0.0014574680244550109,0.001393830985762179,0.001342305913567543,0.001296991715207696,0.0012460303260013461,0.0011950586922466755,0.0011504357680678368,0.0011077163508161902,0.0010682251304388046,0.0010326509363949299,0.0009984095813706517,0.0009648384875617921,0.0009329323074780405,0.0009011539514176548,0.0008732337155379355,0.0008454679045826197,0.0008193700341507792,0.0007925063837319613,0.0007713298546150327,0.0007467286195605993,0.0007261476712301373,0.0007049345294944942,0.0006838415283709764,0.0006649696733802557,0.0006463087629526854,0.0006287549040280282,0.0006126725347712636,0.0005944114527665079,0.0005797934718430042,0.000564337708055973,0.0005502780550159514,0.0005366065306589007,0.000524655100889504,0.0005107347387820482,0.0004982033278793097,0.00048462545964866877,0.00047449918929487467,0.0004624893481377512,0.00045194337144494057,0.0004409278044477105,0.00043061410542577505,0.000421423144871369,0.0004120624507777393,0.0004018758190795779,0.0003936167631763965,0.0003849151835311204,0.0003763379354495555,0.0003690462908707559,0.0003610946296248585,0.00035306246718391776,0.00034631878952495754,0.00033927804906852543,0.00033216027077287436,0.00032503632246516645,0.00031854052213020623,0.0003122204216197133,0.00030608780798502266,0.0003005947219207883,0.0002947309403680265,0.00028885153005830944,0.0002833829203154892,0.0002779657079372555,0.0002743182412814349,0.0002678442979231477,0.0002636729914229363,0.00025853223633021116,0.00025373930111527443,0.0002491356572136283,0.0002445784048177302,0.00024053773086052388,0.00023608299670740962,0.0002320915664313361,0.00022822126629762352,0.00022422558686230332,0.00022036915470380336,0.00021657784236595035,0.00021325419947970659,0.00020979940018150955,0.00020603773009497672,0.00020295236026868224,0.0001996142091229558,0.00019614186021499336,0.00019283383153378963,0.00019009871175512671,0.00018704526883084327,0.00018388015450909734,0.00018114862905349582,0.00017825102258939296,0.00017570897762198,0.00017272817785851657,0.00017044530250132084,0.00016770721413195133,0.0001652472565183416,0.0001628321479074657,0.00016026741650421172,0.00015790348697919399,0.00015574430290143937,0.00015331468603108078,0.00015140112373046577,0.00014888714940752834,0.00014693348202854395,0.00014476871001534164,0.0001427723909728229,0.00014066135918255895,0.00013867356756236404,0.0001367998047498986,0.0001348383812000975,0.00013295607641339302,0.00013122889504302293,0.00012955599231645465,0.00012774633069057018,0.00012591952690854669,0.00012427580077201128,0.0001227322209160775,0.00012100418098270893,0.00011946889571845531,0.00011783718218794093,0.00011632328823907301,0.00011479099339339882,0.00011330307461321354,0.00011192334932275116,0.00011049729801015928,0.00010908002877840772,0.00010770468361442909,0.00010630749602569267,0.00010496150207472965,0.0001035937893902883,0.00010240072151646018,0.0001011050189845264,9.989870159188285e-05,9.869343193713576e-05,9.751649486133829e-05,9.632062574382871e-05,9.513727127341554e-05,9.398310066899285e-05,9.287692955695093e-05,9.179290645988658e-05,9.06951172510162e-05,8.962785796029493e-05,8.85171175468713e-05,8.748490654397756e-05,8.647630602354184e-05,8.55221223901026e-05,8.452800830127671e-05,8.353355951840058e-05,8.261518087238073e-05,8.168985368683934e-05,8.070938929449767e-05,7.985162665136158e-05,7.891274435678497e-05,7.803181506460533e-05
6,4.79688835144043,3.0458285808563232,2.637052297592163,2.4569942951202393,2.2838330268859863,2.05014967918396,1.7506086826324463,1.4045588970184326,1.020548701286316,0.6643083095550537,0.38649782538414,0.20543605089187622,0.11454476416110992,0.06030724570155144,0.03751059249043465,0.02463020570576191,0.018324105069041252,0.014671744778752327,0.012147095054388046,0.010378291830420494,0.009054173715412617,0.007985241711139679,0.007149856071919203,0.006478691007941961,0.005856746807694435,0.005370141938328743,0.004934090655297041,0.0045691607519984245,0.004213482607156038,0.003909961320459843,0.0036466154269874096,0.00340966135263443,0.0031842729076743126,0.002976427087560296,0.0028102020733058453,0.0026425975374877453,0.002491035033017397,0.0023537767119705677,0.002225160598754883,0.002112048212438822,0.00201402697712183,0.0019156034104526043,0.0018197617027908564,0.0017354345181956887,0.0016564063262194395,0.0015845892485231161,0.0015137764858081937,0.001450920244678855,0.0013882059138268232,0.0013377130962908268,0.001278716023080051,0.001229727640748024,0.0011829682625830173,0.0011411405866965652,0.0010970807634294033,0.0010568576399236917,0.0010194932110607624,0.0009848613990470767,0.0009532190160825849,0.0009145925287157297,0.0008868658915162086,0.0008565143798477948,0.0008304145303554833,0.0008035682258196175,0.0007798208389431238,0.0007548626163043082,0.0007309607462957501,0.0007087674457579851,0.0006879219436086714,0.0006682130042463541,0.0006498493603430688,0.0006321737891994417,0.0006139533943496644,0.0005962408031336963,0.0005808182759210467,0.0005655748536810279,0.0005499488324858248,0.0005364140961319208,0.0005226800567470491,0.0005097829271107912,0.000496613618452102,0.00048478288226760924,0.0004718769923783839,0.00046197883784770966,0.000449554790975526,0.00043929475941695273,0.0004289870266802609,0.00041895188041962683,0.0004089675494469702,0.0004003741196356714,0.00039057276444509625,0.0003820429556071758,0.00037336029345169663,0.00036578282015398145,0.0003575225127860904,0.0003502639301586896,0.0003425200702622533,0.0003357540990691632,0.00032805759110488,0.0003214642929378897,0.0003147198003716767,0.00030896312091499567,0.0003024041361641139,0.0002960021374747157,0.00029042709502391517,0.0002846888964995742,0.00027904074522666633,0.00027431774651631713,0.0002688774256967008,0.00026358445757068694,0.00025850668316707015,0.00025377553538419306,0.00024908725754357874,0.0002446102735120803,0.0002396339550614357,0.0002357074263272807,0.000231232465011999,0.0002275189763167873,0.00022321882715914398,0.00021935772383585572,0.0002155299880541861,0.00021197002206463367,0.00020844937535002828,0.00020464476256165653,0.00020141596905887127,0.0001980933011509478,0.00019468343816697598,0.0001917538174893707,0.00018847730825655162,0.00018533227557782084,0.00018224927771370858,0.00017962830315809697,0.00017640639271121472,0.00017396020120941103,0.0001711021177470684,0.00016845132631715387,0.00016575856716372073,0.00016324188618455082,0.0001606682490091771,0.000158369803102687,0.00015601786435581744,0.0001535476912977174,0.0001511706504970789,0.00014893925981596112,0.00014686064969282597,0.00014451808237936348,0.0001425590307917446,0.00014047017612028867,0.0001383053750032559,0.00013640974066220224,0.00013451857375912368,0.0001325099729001522,0.00013067974941805005,0.00012878802954219282,0.00012707397399935871,0.00012526761565823108,0.00012358190724626184,0.00012186440289951861,0.00012010498903691769,0.00011864016414619982,0.00011694843851728365,0.00011534742952790111,0.00011382452794350684,0.00011239411833230406,0.00011075514339609072,0.00010932371515082195,0.00010790872329380363,0.00010646061855368316,0.00010504965030122548,0.00010363588808104396,0.00010231929627479985,0.00010105360706802458,9.973895794246346e-05,9.845442400546744e-05,9.716854401631281e-05,9.599106851965189e-05,9.47627195273526e-05,9.362096898257732e-05,9.238971688318998e-05,9.1366826382e-05,9.01955645531416e-05,8.911133772926405e-05,8.803267701296136e-05,8.693188283359632e-05,8.590268407715484e-05,8.485548460157588e-05,8.386498666368425e-05,8.283278293674812e-05,8.185116166714579e-05,8.093918586382642e-05,8.000093657756224e-05,7.905821985332295e-05,7.817625009920448e-05,7.725547766312957e-05,7.644385914318264e-05,7.546990673290566e-05,7.458524487446994e-05,7.373151311185211e-05,7.291098881978542e-05,7.209388422779739e-05
