,0,1,2,3,4,5,6,7,8,9,10,11,12,13,14,15,16,17,18,19,20,21,22,23,24,25,26,27,28,29,30,31,32,33,34,35,36,37,38,39,40,41,42,43,44,45,46,47,48,49,50,51,52,53,54,55,56,57,58,59,60,61,62,63,64,65,66,67,68,69,70,71,72,73,74,75,76,77,78,79,80,81,82,83,84,85,86,87,88,89,90,91,92,93,94,95,96,97,98,99,100,101,102,103,104,105,106,107,108,109,110,111,112,113,114,115,116,117,118,119,120,121,122,123,124,125,126,127,128,129,130,131,132,133,134,135,136,137,138,139,140,141,142,143,144,145,146,147,148,149,150,151,152,153,154,155,156,157,158,159,160,161,162,163,164,165,166,167,168,169,170,171,172,173,174,175,176,177,178,179,180,181,182,183,184,185,186,187,188,189,190,191,192,193,194,195,196,197,198,199
0,4.924168109893799,3.706275463104248,2.926382064819336,2.4507384300231934,2.2180042266845703,2.002258777618408,1.7373226881027222,1.4335205554962158,1.0985221862792969,0.77224200963974,0.5136572122573853,0.3532359302043915,0.1938231885433197,0.11140462011098862,0.06854867190122604,0.04310665279626846,0.028693199157714844,0.019464388489723206,0.015393965877592564,0.011961612850427628,0.010221175849437714,0.008673351258039474,0.007535502314567566,0.0067131128162145615,0.006143512204289436,0.00561724416911602,0.005210717208683491,0.0048179361037909985,0.004535513464361429,0.004244730807840824,0.003986887168139219,0.003754632780328393,0.0035653901286423206,0.0033692489378154278,0.0031991105061024427,0.003041975200176239,0.002903453540056944,0.0027681011706590652,0.002640020800754428,0.00252823275513947,0.0024205485824495554,0.002318542916327715,0.002222837647423148,0.0021347692236304283,0.0020511511247605085,0.0019756623078137636,0.001897827023640275,0.0018303357064723969,0.0017642395105212927,0.0016995351761579514,0.0016403611516579986,0.0015855432720854878,0.0015305278357118368,0.0014804790262132883,0.0014350765850394964,0.001389048178680241,0.0013428089441731572,0.0013049985282123089,0.0012649407144635916,0.001223885570652783,0.001189679722301662,0.0011533121578395367,0.0011213496327400208,0.001090186065994203,0.0010592290200293064,0.0010293840896338224,0.0010013636201620102,0.0009743399568833411,0.0009486846975050867,0.0009243778185918927,0.0009001948637887836,0.0008772709988988936,0.0008549882913939655,0.0008341112406924367,0.0008145989268086851,0.0007946614641696215,0.0007755639380775392,0.0007570161833427846,0.0007396477740257978,0.0007219705148600042,0.0007052732398733497,0.0006891436059959233,0.0006737372605130076,0.0006595954764634371,0.0006453254027292132,0.0006313624326139688,0.0006178499315865338,0.000604272005148232,0.0005915779038332403,0.0005792267620563507,0.0005683063063770533,0.0005562464939430356,0.0005447964649647474,0.0005335690802894533,0.0005234408308751881,0.0005130517529323697,0.0005030636093579233,0.0004935376346111298,0.00048403540858998895,0.00047486243420280516,0.0004663024446927011,0.0004580373642966151,0.0004492193984333426,0.00044108895235694945,0.00043327841558493674,0.00042558967834338546,0.0004179414827376604,0.000410953420214355,0.00040402577724307775,0.00039652868872508407,0.0003900757583323866,0.0003836250107269734,0.00037690132739953697,0.00037048396188765764,0.00036478470428846776,0.0003584751102607697,0.000352580682374537,0.00034676140057854354,0.0003412541700527072,0.0003358387330081314,0.00033020402770489454,0.0003253786126151681,0.00031995598692446947,0.00031525420490652323,0.0003104671195615083,0.00030556213459931314,0.00030085883918218315,0.00029625254683196545,0.00029193342197686434,0.0002873906632885337,0.00028324307641014457,0.0002794465981423855,0.00027498070267029107,0.00027114737895317376,0.0002672600676305592,0.0002634708071127534,0.0002598352439235896,0.00025614857440814376,0.0002524546580389142,0.0002490199694875628,0.00024564715567976236,0.00024250827846117318,0.00023923016851767898,0.000235824947594665,0.00023255610722117126,0.00022970399004407227,0.00022637078654952347,0.00022341543808579445,0.00022063094365876168,0.00021775189088657498,0.00021490341168828309,0.00021219704649411142,0.00020934977510478348,0.00020672513346653432,0.00020410421711858362,0.00020154064986854792,0.00019900935876648873,0.00019657544908113778,0.00019410514505580068,0.00019168778089806437,0.00018930580699816346,0.00018706807168200612,0.00018482487939763814,0.00018253826419822872,0.00018038861162494868,0.00017819802451413125,0.00017606925393920392,0.00017408198618795723,0.00017202294839080423,0.0001700299617368728,0.0001680503919487819,0.00016605612472631037,0.00016425969079136848,0.0001622385170776397,0.00016030046390369534,0.00015853665536269546,0.00015680058277212083,0.00015507465286646038,0.00015330733731389046,0.00015164226351771504,0.0001498552883276716,0.00014829800056759268,0.0001466331013944,0.00014508800813928246,0.0001435201265849173,0.0001419971522409469,0.00014044481213204563,0.00013897399185225368,0.00013752031372860074,0.0001360250753350556,0.0001346395001746714,0.0001332392421318218,0.0001318207650911063,0.00013053802831564099,0.00012918470019940287,0.00012782600242644548,0.00012656746548600495,0.00012524040357675403,0.00012402160791680217,0.00012279016664251685
1,5.100640773773193,3.967180013656616,3.0178306102752686,2.49316668510437,2.3308417797088623,2.13299822807312,1.8964693546295166,1.6384495496749878,1.3455361127853394,1.013695478439331,0.735032320022583,0.47295957803726196,0.27383890748023987,0.15844812989234924,0.09375550597906113,0.06070886552333832,0.037961605936288834,0.026161128655076027,0.019467703998088837,0.0144583685323596,0.012159058824181557,0.009686590172350407,0.008502385579049587,0.007506617344915867,0.006713544484227896,0.006125269457697868,0.0056397272273898125,0.005236431490629911,0.004861815832555294,0.004557095468044281,0.004267964046448469,0.004020890220999718,0.003791828639805317,0.003608222585171461,0.003409084863960743,0.0032303587067872286,0.0030827512964606285,0.002925899811089039,0.002793701598420739,0.0026667332276701927,0.0025460286997258663,0.0024409755133092403,0.0023357041645795107,0.0022386631462723017,0.0021456570830196142,0.0020629456266760826,0.001984564820304513,0.0019133713794872165,0.001840526470914483,0.001773053198121488,0.001713826204650104,0.00165033049415797,0.0015936216805130243,0.001538458396680653,0.0014884861884638667,0.001437684055417776,0.0013917055912315845,0.0013460003538057208,0.0013050816487520933,0.0012653815792873502,0.0012263492681086063,0.001189283560961485,0.001154767582193017,0.0011234217090532184,0.0010904164519160986,0.001059786300174892,0.0010305435862392187,0.0010014752624556422,0.0009746671421453357,0.0009478286956436932,0.0009239466162398458,0.0008992503280751407,0.0008756015449762344,0.0008538521360605955,0.0008328849798999727,0.0008123974548652768,0.0007925445679575205,0.0007732011727057397,0.0007553926552645862,0.0007372501422651112,0.000720831798389554,0.0007034643203951418,0.0006878229905851185,0.0006728030275553465,0.0006572724669240415,0.0006431122310459614,0.0006293145124800503,0.0006149091059342027,0.0006022633169777691,0.0005891150212846696,0.000577033031731844,0.0005649197264574468,0.0005541089340113103,0.0005427821888588369,0.0005315435701049864,0.0005213934346102178,0.0005114984815008938,0.0005015643546357751,0.0004919785424135625,0.00048253167187795043,0.00047303095925599337,0.00046496526920236647,0.0004561374371405691,0.0004476917674764991,0.0004396264848764986,0.000431697815656662,0.00042422942351549864,0.0004170085594523698,0.00040972745046019554,0.00040282856207340956,0.00039636451401747763,0.0003890870721079409,0.00038219435373321176,0.00037605944089591503,0.0003699182125274092,0.0003638335911091417,0.0003576240560505539,0.000352168339304626,0.00034618726931512356,0.0003408014599699527,0.00033541969605721533,0.00033028950565494597,0.00032512194593437016,0.0003198850026819855,0.0003151210257783532,0.00031031269463710487,0.00030554638942703605,0.00030109231011010706,0.0002963801089208573,0.0002922108687926084,0.00028792800731025636,0.0002835473569575697,0.000279387051705271,0.0002754550951067358,0.00027140212478116155,0.00026754531427286565,0.00026376446476206183,0.00025995055329985917,0.00025648355949670076,0.00025296033709309995,0.00024929476785473526,0.0002458035305608064,0.000242717593209818,0.000239347864408046,0.0002360903745284304,0.0002330309071112424,0.00022983219241723418,0.00022672908380627632,0.0002238281158497557,0.0002209473605034873,0.00021835147344972938,0.00021530705271288753,0.00021261622896417975,0.0002098333789035678,0.0002071720955427736,0.00020470574963837862,0.0002019931562244892,0.0001995079655898735,0.00019706333114299923,0.00019473636348266155,0.00019216218788642436,0.0001899860508274287,0.00018766532593872398,0.00018540005839895457,0.0001832307898439467,0.00018097064457833767,0.00017899459635373205,0.0001768023066688329,0.00017476500943303108,0.0001727382477838546,0.0001708178169792518,0.00016879852046258748,0.00016677672101650387,0.00016489173867739737,0.00016295992827508599,0.0001611191692063585,0.00015934297698549926,0.00015753759362269193,0.00015581601473968476,0.00015412068751174957,0.00015240364882629365,0.0001507192791905254,0.00014907278819009662,0.00014753702271264046,0.00014585575263481587,0.00014433673641178757,0.00014279992319643497,0.00014132454816717654,0.0001397978630848229,0.00013828130613546818,0.00013687294267583638,0.00013541412772610784,0.00013399480667430907,0.0001325970224570483,0.00013123461394570768,0.00012992268602829427,0.00012856876128353179,0.0001272897352464497,0.00012600449554156512,0.0001247970649274066
2,4.622994422912598,3.1456656455993652,2.480752468109131,2.2090256214141846,1.9747085571289062,1.6583088636398315,1.3183931112289429,0.9533240795135498,0.6305995583534241,0.38398003578186035,0.21775130927562714,0.11604389548301697,0.06691839545965195,0.03948487341403961,0.02535751461982727,0.01637011207640171,0.01277977880090475,0.009498844854533672,0.008031177334487438,0.006762773729860783,0.006018233951181173,0.005386077333241701,0.0048783826641738415,0.004504785872995853,0.004169605206698179,0.003907730337232351,0.0036503502633422613,0.0034374038223177195,0.003254686016589403,0.003071162151172757,0.002923047635704279,0.0027673961594700813,0.0026377204339951277,0.002511042170226574,0.0023878072388470173,0.0022746510803699493,0.0021777814254164696,0.0020794838201254606,0.001992305973544717,0.0019056403543800116,0.001828035805374384,0.0017572966171428561,0.0016871567349880934,0.001620227936655283,0.0015619838377460837,0.0014997661346569657,0.0014465675922110677,0.001397318672388792,0.0013472067657858133,0.0013001017505303025,0.0012555669527500868,0.0012147986562922597,0.0011734297731891274,0.001136422622948885,0.0010996570345014334,0.0010651835473254323,0.0010332453530281782,0.001000911695882678,0.0009730542078614235,0.0009439334971830249,0.0009164398070424795,0.0008902252884581685,0.0008670113747939467,0.000841684581246227,0.0008196233538910747,0.000796397915109992,0.0007751418743282557,0.0007550845039077103,0.0007354719564318657,0.000716875831130892,0.0006988078821450472,0.0006820049602538347,0.0006653883028775454,0.0006486981874331832,0.0006327374721877277,0.0006186828832142055,0.0006044817855581641,0.0005906418664380908,0.0005764059606008232,0.0005641064490191638,0.0005509480251930654,0.0005387694109231234,0.0005280380719341338,0.000516177446115762,0.000505122123286128,0.0004951346782036126,0.0004844909708481282,0.00047465067473240197,0.0004646582528948784,0.0004555873165372759,0.00044639594852924347,0.0004374432610347867,0.00042864526039920747,0.000420229509472847,0.0004124016559217125,0.0004042669024784118,0.0003967596567235887,0.00038935430347919464,0.00038220739224925637,0.00037496734876185656,0.0003682401729747653,0.0003614502784330398,0.0003550499095581472,0.000348996720276773,0.0003427952469792217,0.0003369198238942772,0.00033109422656707466,0.00032527639996260405,0.000319889048114419,0.00031458036391995847,0.00030926254112273455,0.0003043457109015435,0.000299339386401698,0.00029466242995113134,0.0002897822414524853,0.0002851774625014514,0.0002805821713991463,0.0002760385978035629,0.0002720172342378646,0.0002677432494238019,0.0002636605058796704,0.0002596010745037347,0.00025571970036253333,0.00025184929836541414,0.00024818943347781897,0.0002444857673253864,0.00024088815553113818,0.00023743750352878124,0.00023398887424264103,0.00023059319937601686,0.00022726826136931777,0.00022425099450629205,0.0002210630918852985,0.00021772037143819034,0.0002148879721062258,0.0002119486016454175,0.0002088162291329354,0.00020604219753295183,0.00020318706810940057,0.00020052130275871605,0.0001977712963707745,0.00019521410285960883,0.00019258569227531552,0.00019013356359209865,0.00018759227532427758,0.000185184006113559,0.0001827893574954942,0.0001804404309950769,0.00017828622367233038,0.00017593857774045318,0.0001738245482556522,0.00017159315757453442,0.00016938410408329219,0.0001673703663982451,0.00016533778398297727,0.00016333894745912403,0.00016125384718179703,0.0001594271743670106,0.00015754709602333605,0.00015573260316159576,0.00015379292017314583,0.0001519610232207924,0.00015014814562164247,0.00014842115342617035,0.00014664330228697509,0.0001450241106795147,0.00014334244769997895,0.00014176341937854886,0.00014009310689289123,0.0001384639908792451,0.00013693708751816303,0.00013542405213229358,0.00013389362720772624,0.00013237852544989437,0.0001309273502556607,0.00012949042138643563,0.00012806677841581404,0.00012678155326284468,0.00012533822155091912,0.00012399999832268804,0.00012266714475117624,0.00012133370182709768,0.00012005135795334354,0.00011877273209393024,0.00011753901344491169,0.0001163590932264924,0.0001151057003880851,0.00011387921404093504,0.00011274936696281657,0.00011158661800436676,0.00011043917766073719,0.00010932629811577499,0.00010828398080775514,0.00010714771633502096,0.00010608117008814588,0.00010502809163881466,0.0001040406059473753,0.00010293351078871638,0.0001019218034343794,0.00010090513387694955
3,5.059760093688965,3.3788554668426514,2.649564504623413,2.4309966564178467,2.2089040279388428,1.9748300313949585,1.7123966217041016,1.3857883214950562,1.0706721544265747,0.7710537314414978,0.5123422145843506,0.31374019384384155,0.1988663375377655,0.10675159096717834,0.06162082403898239,0.04072347283363342,0.025691024959087372,0.01862684078514576,0.014739496633410454,0.011474277824163437,0.009778009727597237,0.008253918960690498,0.007355036213994026,0.006625098641961813,0.0059965830296278,0.00550587335601449,0.0051290723495185375,0.004746174905449152,0.004440192598849535,0.004165694583207369,0.003924330696463585,0.0037088138051331043,0.003498136531561613,0.0033101364970207214,0.003145085647702217,0.002985646016895771,0.0028433583211153746,0.0027094550896435976,0.0025829982478171587,0.0024708614218980074,0.00236195744946599,0.002261074958369136,0.0021664511878043413,0.0020789015106856823,0.0019975672475993633,0.0019166241399943829,0.0018436964601278305,0.0017723659984767437,0.0017097153468057513,0.0016474646981805563,0.0015874744858592749,0.0015346658183261752,0.0014825213002040982,0.0014283673372119665,0.001382538233883679,0.0013401495525613427,0.0012950501404702663,0.0012551831314340234,0.0012161979684606194,0.001177924103103578,0.0011420253431424499,0.0011078034294769168,0.001077523804269731,0.0010476162424311042,0.0010166889987885952,0.0009885667823255062,0.0009615684393793344,0.0009349615429528058,0.0009110109531320632,0.0008864778210408986,0.0008627341012470424,0.0008397459168918431,0.0008192195673473179,0.0007982324459590018,0.0007778754807077348,0.0007595107308588922,0.0007406548829749227,0.000721980759408325,0.0007052334840409458,0.0006894366233609617,0.0006739887176081538,0.0006571842823177576,0.0006426347536034882,0.0006280621164478362,0.0006135545554570854,0.0005998764536343515,0.0005871637840755284,0.0005746476235799491,0.0005619480507448316,0.0005498108803294599,0.0005389123689383268,0.0005271187983453274,0.000516011263243854,0.0005053654895164073,0.000495041545946151,0.0004849364631809294,0.000475152803119272,0.00046566739911213517,0.00045643275370821357,0.0004474069573916495,0.00043828299385495484,0.0004301292938180268,0.000421621254645288,0.000413884234149009,0.00040539191104471684,0.0003975298604927957,0.00039042005664668977,0.0003830563509836793,0.00037573830923065543,0.0003689032164402306,0.00036214294959791005,0.00035585544537752867,0.00034953298745676875,0.00034368783235549927,0.0003376495442353189,0.0003321192925795913,0.00032616982934996486,0.0003209055576007813,0.00031538461917079985,0.00031039430177770555,0.0003053166437894106,0.0003002200392074883,0.00029523117700591683,0.00029070707387290895,0.0002863230474758893,0.00028153229504823685,0.00027727949782274663,0.00027301860973238945,0.00026876336778514087,0.00026476028142496943,0.00026071531465277076,0.0002570915676187724,0.0002530735218897462,0.00024934130487963557,0.00024574765120632946,0.00024205722729675472,0.00023867416894063354,0.00023545650765299797,0.0002318999177077785,0.00022871569672133774,0.00022538792109116912,0.00022226612782105803,0.00021908807684667408,0.0002162487362511456,0.00021328650473151356,0.00021027025650255382,0.00020752484851982445,0.00020469246373977512,0.00020192295778542757,0.00019923353102058172,0.0001967396237887442,0.00019410855020396411,0.0001916072069434449,0.00018912798259407282,0.00018666157848201692,0.00018434252706356347,0.0001820399920688942,0.00017977719835471362,0.00017754394502844661,0.00017529043543618172,0.00017314223805442452,0.00017097085947170854,0.0001689720229478553,0.0001668002369115129,0.000164787721587345,0.0001628323516342789,0.0001609132013982162,0.00015895099204499274,0.00015709763101767749,0.00015518568397965282,0.00015348334272857755,0.00015161566261667758,0.0001497993216617033,0.00014810172433499247,0.00014640326844528317,0.00014471561007667333,0.00014313637802843004,0.00014157700934447348,0.00013993318134453148,0.00013838497397955507,0.00013683157158084214,0.00013539570500142872,0.0001338886359008029,0.0001323907054029405,0.000130933549371548,0.0001295208785450086,0.00012815205263905227,0.00012682336091529578,0.00012540133320726454,0.0001240627170773223,0.00012287413119338453,0.00012151915143476799,0.0001201858976855874,0.00011898134835064411,0.00011774556332966313,0.00011660061863949522,0.0001153675329987891,0.00011414539039833471,0.00011303540668450296,0.0001119438384193927
4,4.818081855773926,3.7218992710113525,2.9797935485839844,2.49582576751709,2.237901449203491,2.00209641456604,1.759304404258728,1.4333261251449585,1.1032215356826782,0.7683298587799072,0.4967336058616638,0.30924153327941895,0.18474148213863373,0.11568515747785568,0.06941649317741394,0.04244307801127434,0.02687167376279831,0.018414335325360298,0.015156228095293045,0.011139611713588238,0.00966336764395237,0.008064587600529194,0.00702436501160264,0.006327842827886343,0.005761292297393084,0.005242494400590658,0.004907788708806038,0.004583301022648811,0.004276752937585115,0.004052263218909502,0.0038159398827701807,0.0035960515961050987,0.0034107256215065718,0.003237093798816204,0.0030883741565048695,0.0029396014288067818,0.0028020902536809444,0.002674041548743844,0.0025563612580299377,0.0024445715826004744,0.002344756852835417,0.0022428471129387617,0.0021567062940448523,0.002072523348033428,0.0019912768620997667,0.0019165356643497944,0.0018428625771775842,0.001774514908902347,0.001712114899419248,0.0016518649645149708,0.0015966043574735522,0.0015403000870719552,0.0014891047030687332,0.0014400322688743472,0.0013923795195296407,0.001350583042949438,0.0013060220517218113,0.0012675143079832196,0.001227563712745905,0.0011906330473721027,0.00115466199349612,0.0011189343640580773,0.0010878841858357191,0.0010562405223026872,0.0010269791819155216,0.0009998391615226865,0.0009713981999084353,0.0009443569579161704,0.0009187657851725817,0.00089550536358729,0.0008737269090488553,0.0008495723595842719,0.00082937948172912,0.0008096077363006771,0.0007891402929089963,0.000769255799241364,0.0007506943074986339,0.0007332646637223661,0.0007158542284741998,0.0006993861170485616,0.0006838604458607733,0.0006697290809825063,0.0006536846631206572,0.0006392102804966271,0.0006247127312235534,0.0006110991816967726,0.000597880338318646,0.0005856040515936911,0.0005733422585763037,0.0005612506647594273,0.0005495435907505453,0.000538066029548645,0.0005276685697026551,0.0005168082425370812,0.0005069676553830504,0.0004968248540535569,0.00048723677173256874,0.00047803125926293433,0.00046908383956179023,0.0004600220127031207,0.0004516933113336563,0.0004430917324498296,0.00043545529479160905,0.0004274785169400275,0.00041934236651286483,0.00041205607703886926,0.00040512793930247426,0.0003980119654443115,0.0003910000086762011,0.00038440737989731133,0.00037768727634102106,0.0003713246260304004,0.00036507146432995796,0.0003590653359424323,0.0003530555113684386,0.0003471784002613276,0.0003414418315514922,0.0003360809641890228,0.0003309225430712104,0.00032534380443394184,0.0003201522631570697,0.00031518854666501284,0.00031025867792777717,0.0003057053836528212,0.00030069012427702546,0.0002963080769404769,0.00029184677987359464,0.0002874642377719283,0.0002833648177329451,0.0002788720594253391,0.0002748565748333931,0.00027105206390842795,0.0002668731031008065,0.00026323070051148534,0.00025939036277122796,0.0002554838138166815,0.00025214324705302715,0.0002484966826159507,0.0002450227038934827,0.00024167039373423904,0.0002385931002208963,0.00023518769012298435,0.00023203050659503788,0.0002288432588102296,0.00022579828510060906,0.00022285411250777543,0.00021989454398863018,0.00021696639305446297,0.00021422347344923764,0.00021154737623874098,0.0002087630855385214,0.0002060692204395309,0.00020353254512883723,0.00020100988331250846,0.0001985666895052418,0.00019604696717578918,0.00019347056513652205,0.00019124726532027125,0.0001888127444544807,0.00018652329163160175,0.00018423155415803194,0.00018209684640169144,0.00017992717039305717,0.00017770843987818807,0.00017567508621141315,0.0001735341502353549,0.0001715493854135275,0.00016952547593973577,0.0001675874664215371,0.00016568797582294792,0.00016378291184082627,0.00016196641081478447,0.00016002864867914468,0.00015823877765797079,0.00015649445413146168,0.00015464151510968804,0.00015300599625334144,0.0001513218885520473,0.00014966590970288962,0.00014802668010815978,0.00014639573055319488,0.00014475651551038027,0.00014320126501843333,0.00014168844791129231,0.0001401549088768661,0.00013861479237675667,0.00013717437104787678,0.0001357186702080071,0.00013427663361653686,0.0001327995996689424,0.00013146265700925142,0.00013004893844481558,0.0001287351769860834,0.0001274081296287477,0.00012616947060450912,0.0001247586333192885,0.00012353650527074933,0.00012230133870616555,0.00012108168448321521,0.00011981758871115744
5,5.340555667877197,3.68402099609375,2.896441698074341,2.4833498001098633,2.218230724334717,2.0221829414367676,1.7560439109802246,1.4732346534729004,1.160333514213562,0.83586186170578,0.5817430019378662,0.35895174741744995,0.22232413291931152,0.13429605960845947,0.0822501853108406,0.053743235766887665,0.030612925067543983,0.02471863478422165,0.016820566728711128,0.014188362285494804,0.010962191969156265,0.009717686101794243,0.00820871815085411,0.0074141547083854675,0.00667619938030839,0.006120084784924984,0.005619841627776623,0.0052115595899522305,0.004876222461462021,0.00454446766525507,0.004276939667761326,0.004014628008008003,0.0037804762832820415,0.0035815739538520575,0.003394213505089283,0.0032143585849553347,0.0030602284241467714,0.002910427749156952,0.0027771086897701025,0.0026497498620301485,0.0025314909871667624,0.002425743266940117,0.0023205559700727463,0.0022260495461523533,0.0021375284995883703,0.00205749343149364,0.001976167084649205,0.0018995316931977868,0.0018305480480194092,0.0017635063268244267,0.0017025296110659838,0.0016441784100607038,0.0015859659761190414,0.0015314552001655102,0.001483469852246344,0.0014339874032884836,0.0013865852961316705,0.0013442441122606397,0.0013031894341111183,0.0012629595585167408,0.001224613282829523,0.0011889091692864895,0.0011544558219611645,0.0011205002665519714,0.0010886740637943149,0.0010576185304671526,0.0010299417190253735,0.001001452561467886,0.0009755634819157422,0.0009482888854108751,0.0009228250710293651,0.0009008976048789918,0.0008769451524131,0.000855116406455636,0.0008333310834132135,0.0008128082263283432,0.0007933916058391333,0.000774443440604955,0.0007557279313914478,0.0007385120261460543,0.0007214737706817687,0.0007051481516100466,0.0006880952860228717,0.0006731904577463865,0.0006582511705346406,0.0006436575204133987,0.0006297723739407957,0.0006166689563542604,0.0006036493577994406,0.0005912562482990324,0.000578544451855123,0.0005668820813298225,0.0005552289076149464,0.0005438820226117969,0.0005333643057383597,0.0005225560744293034,0.0005122863221913576,0.0005022927070967853,0.000492889666929841,0.0004835942236240953,0.0004743922909256071,0.0004655726079363376,0.0004565228009596467,0.0004483829252421856,0.0004402071062941104,0.00043213527533225715,0.0004244632145855576,0.000416975817643106,0.0004096919728908688,0.00040263182017952204,0.00039505964377895,0.00038852557190693915,0.00038215290987864137,0.00037531793350353837,0.0003691798192448914,0.0003630056162364781,0.0003572571149561554,0.000351343653164804,0.00034564154339022934,0.0003404637973289937,0.0003348221362102777,0.00032989680767059326,0.0003243399551138282,0.00031934783328324556,0.0003142397617921233,0.00030927249463275075,0.00030464213341474533,0.00029981782427057624,0.00029558560345321894,0.00029106077272444963,0.00028665253194049,0.00028216707869432867,0.0002781672228593379,0.0002739833726081997,0.0002701497869566083,0.00026628642808645964,0.0002622074680402875,0.00025846881908364594,0.0002548961201682687,0.00025120985810644925,0.0002477528469171375,0.0002444739220663905,0.00024100237351376563,0.00023763815988786519,0.0002344690728932619,0.00023126891755964607,0.00022819865262135863,0.00022502995852846652,0.00022203692060429603,0.0002190413506468758,0.00021613870922010392,0.00021339693921618164,0.0002106676110997796,0.00020785695232916623,0.00020528376626316458,0.00020257389405742288,0.0001999569358304143,0.00019748559861909598,0.00019496273307595402,0.00019252057245466858,0.0001900612114695832,0.00018773876945488155,0.00018542545149102807,0.000183133888640441,0.00018102541798725724,0.0001788016816135496,0.00017673354886937886,0.00017464975826442242,0.000172576037584804,0.00017050026508513838,0.00016845982463564724,0.00016655120998620987,0.0001645078882575035,0.0001625421573407948,0.0001608033780939877,0.00015897479897830635,0.00015714357141405344,0.0001552999165141955,0.0001535785268060863,0.00015183458162937313,0.00015010658535175025,0.0001483738305978477,0.00014680737513117492,0.00014513151836581528,0.00014355641906149685,0.00014205952174961567,0.00014040825772099197,0.00013886066153645515,0.00013740765280090272,0.00013590908201877028,0.00013446017692331225,0.00013304624008014798,0.00013166500139050186,0.00013025868975091726,0.00012889791105408221,0.00012764023267664015,0.00012626004172489047,0.00012494002294261009,0.00012363988207653165,0.0001223124418174848
6,5.160097122192383,3.733487844467163,2.785702705383301,2.4415204524993896,2.2564008235931396,2.0275373458862305,1.7848246097564697,1.495365023612976,1.1632508039474487,0.8346180319786072,0.5559571981430054,0.3553391695022583,0.2061823308467865,0.1290532350540161,0.07218746095895767,0.04055141657590866,0.030344614759087563,0.018369052559137344,0.01442965492606163,0.010922245681285858,0.008984959684312344,0.0076848845928907394,0.006565070245414972,0.0058943964540958405,0.00536376191303134,0.004909772425889969,0.004519341513514519,0.0042318361811339855,0.003965145442634821,0.003732088953256607,0.003509832313284278,0.0033157949801534414,0.0031516668386757374,0.0029937829822301865,0.0028541956562548876,0.0027187520172446966,0.002585518406704068,0.0024710732977837324,0.0023612421937286854,0.0022599927615374327,0.0021687427069991827,0.002085729967802763,0.001999559113755822,0.0019197884248569608,0.0018464105669409037,0.0017753808060660958,0.0017128631006926298,0.0016539760399609804,0.001592747401446104,0.0015410489868372679,0.001486265566200018,0.001438127364963293,0.0013906462118029594,0.0013458505272865295,0.001303536118939519,0.0012607671087607741,0.0012229887070134282,0.0011866959976032376,0.0011499897809699178,0.001116700004786253,0.0010846263030543923,0.0010532352607697248,0.0010237438837066293,0.0009965290082618594,0.000969619897659868,0.0009430998470634222,0.0009194798767566681,0.0008940687403082848,0.0008718454046174884,0.0008489752653986216,0.0008279010071419179,0.0008064958383329213,0.0007871959824115038,0.0007683303556405008,0.0007495586178265512,0.0007319708238355815,0.0007150661549530923,0.0006983365165069699,0.0006823948351666331,0.0006665985565632582,0.0006521419854834676,0.0006377118406817317,0.0006236371700651944,0.0006099218735471368,0.0005961168208159506,0.0005845817504450679,0.000571761978790164,0.0005599050782620907,0.0005478465463966131,0.0005368547863326967,0.0005264407373033464,0.0005158054991625249,0.000505650183185935,0.0004954717587679625,0.0004856519226450473,0.0004767475475091487,0.0004676138050854206,0.00045895003131590784,0.0004502710362430662,0.00044211154454387724,0.0004334936093073338,0.0004260681744199246,0.0004184794379398227,0.0004109568544663489,0.0004041687061544508,0.0003965612268075347,0.0003894261899404228,0.0003826820757240057,0.00037628633435815573,0.0003700999659486115,0.00036388126318342984,0.0003575799928512424,0.0003515417338348925,0.00034591497387737036,0.0003401367284823209,0.0003347467281855643,0.00032925562118180096,0.0003238899225834757,0.0003188547270838171,0.00031369071803055704,0.00030887185130268335,0.0003041090094484389,0.0002994269598275423,0.0002948472974821925,0.0002904685970861465,0.00028592810849659145,0.0002816140477079898,0.00027731095906347036,0.0002730604319367558,0.0002692065027076751,0.0002650785318110138,0.0002612029784359038,0.0002573735255282372,0.0002536672109272331,0.0002499643887858838,0.0002463783312123269,0.00024285736435558647,0.00023961126862559468,0.0002361500373808667,0.00023293544654734433,0.0002295679150847718,0.0002264144568471238,0.00022352168161887676,0.00022027228260412812,0.0002173657267121598,0.00021438344265334308,0.00021157343871891499,0.0002086328895529732,0.00020576678798533976,0.00020307676459196955,0.00020041552488692105,0.0001979001535801217,0.00019513795268721879,0.00019253040954936296,0.0001901541545521468,0.00018757936777547002,0.00018516390991862863,0.00018288292631041259,0.00018050464859697968,0.00017812698206398636,0.00017589294293429703,0.00017384860257152468,0.00017160149582196027,0.00016954145394265652,0.00016744268941693008,0.00016558289644308388,0.00016347563359886408,0.00016136420890688896,0.00015952986723277718,0.00015766220167279243,0.0001557444775244221,0.0001539380755275488,0.00015220716886688024,0.00015041610458865762,0.00014866863784845918,0.00014699461462441832,0.0001453216391382739,0.00014371323049999774,0.000141971351695247,0.0001404299691785127,0.00013889993715565652,0.00013742601731792092,0.00013590532762464136,0.00013441237388178706,0.00013291732466313988,0.0001314895343966782,0.00013003234926145524,0.0001286366314161569,0.00012727276771329343,0.00012600138143170625,0.00012458763376343995,0.000123251520562917,0.00012202484504086897,0.00012082734610885382,0.00011947548046009615,0.00011819457722594962,0.00011697263835230842,0.00011577740224311128,0.00011464817362139001,0.00011353735317243263
