,0,1,2,3,4,5,6,7,8,9,10,11,12,13,14,15,16,17,18,19,20,21,22,23,24,25,26,27,28,29,30,31,32,33,34,35,36,37,38,39,40,41,42,43,44,45,46,47,48,49,50,51,52,53,54,55,56,57,58,59,60,61,62,63,64,65,66,67,68,69,70,71,72,73,74,75,76,77,78,79,80,81,82,83,84,85,86,87,88,89,90,91,92,93,94,95,96,97,98,99,100,101,102,103,104,105,106,107,108,109,110,111,112,113,114,115,116,117,118,119,120,121,122,123,124,125,126,127,128,129,130,131,132,133,134,135,136,137,138,139,140,141,142,143,144,145,146,147,148,149,150,151,152,153,154,155,156,157,158,159,160,161,162,163,164,165,166,167,168,169,170,171,172,173,174,175,176,177,178,179,180,181,182,183,184,185,186,187,188,189,190,191,192,193,194,195,196,197,198,199
0,4.3680620193481445,2.7732272148132324,2.591256856918335,2.4474823474884033,2.269524335861206,2.0229663848876953,1.7493928670883179,1.4265888929367065,1.0434237718582153,0.6554378271102905,0.429669052362442,0.22435694932937622,0.10676847398281097,0.05371745303273201,0.035420939326286316,0.024997197091579437,0.017000310122966766,0.012882022187113762,0.010508996434509754,0.008500032126903534,0.007367552723735571,0.006524802651256323,0.005893799941986799,0.005306861829012632,0.004774836357682943,0.004349227529019117,0.003972405102103949,0.003641816321760416,0.0033463200088590384,0.0030905939638614655,0.002844011876732111,0.0026664473116397858,0.0024781138636171818,0.0023349602706730366,0.002191288163885474,0.0020684939809143543,0.001940146554261446,0.001831499277614057,0.0017302373889833689,0.0016388370422646403,0.00155737460590899,0.0014839682262390852,0.0014113959623500705,0.0013401577016338706,0.001276094582863152,0.0012203413061797619,0.001171765150502324,0.0011162402806803584,0.0010688886977732182,0.001031078863888979,0.00098677899222821,0.0009511288953945041,0.0009059678995981812,0.0008709949906915426,0.0008382848463952541,0.0008076378726400435,0.0007817439618520439,0.0007547723944298923,0.0007269004127010703,0.0007012623827904463,0.0006749963504262269,0.000654692470561713,0.000632434559520334,0.0006121928454376757,0.000593514705542475,0.0005745586240664124,0.0005563549930229783,0.0005396961350925267,0.0005233159754425287,0.0005091523053124547,0.0004927230183966458,0.0004778994480147958,0.0004652392817661166,0.00045191458775661886,0.0004393976123537868,0.00042675589793361723,0.0004160517128184438,0.00040467866347171366,0.0003942890325561166,0.0003837046097032726,0.0003733038029167801,0.0003637974732555449,0.0003552882990334183,0.0003459395084064454,0.00033756784978322685,0.00032989465398713946,0.0003211627481505275,0.0003138667088933289,0.00030578442965634167,0.00029890393489040434,0.00029217853443697095,0.0002848105214070529,0.0002789209538605064,0.00027227806276641786,0.0002663657069206238,0.00026069063460454345,0.000254618440521881,0.00024950067745521665,0.00024398259120061994,0.00023873210011515766,0.00023383226653095335,0.00022878027812112123,0.00022469466784968972,0.00021992195979692042,0.0002150587533833459,0.00021058545098640025,0.00020659931760746986,0.00020223679894115776,0.000198263194761239,0.00019433500710874796,0.00019043806241825223,0.00018701303633861244,0.0001833818096201867,0.00017962309357244521,0.00017679134907666594,0.00017287189257331192,0.00016989189316518605,0.00016661061090417206,0.0001636135420994833,0.0001606868754606694,0.00015781768888700753,0.00015507705393247306,0.0001520636142231524,0.0001493367599323392,0.00014681635366287082,0.0001443145447410643,0.00014171992370393127,0.0001392774429405108,0.00013689127808902413,0.00013458939793054014,0.00013240354019217193,0.0001302090531680733,0.00012800189142581075,0.00012582178169395775,0.00012390375195536762,0.00012184103252366185,0.00011978892143815756,0.00011772616562666371,0.00011596797412494197,0.00011417506902944297,0.00011221855675103143,0.00011055767390644178,0.00010869480320252478,0.00010706989269237965,0.00010537230991758406,0.0001037446127156727,0.00010222523269476369,0.0001006041347864084,9.917398710967973e-05,9.75712900981307e-05,9.604427759768441e-05,9.461029549129307e-05,9.31857866817154e-05,9.197744657285511e-05,9.043247700901702e-05,8.922810957301408e-05,8.77895945450291e-05,8.655825513415039e-05,8.527498721377924e-05,8.40886787045747e-05,8.28761185402982e-05,8.162059384630993e-05,8.04563460405916e-05,7.936414476716891e-05,7.825313514331356e-05,7.717994594713673e-05,7.609235763084143e-05,7.507250120397657e-05,7.404864300042391e-05,7.305781036848202e-05,7.201375410659239e-05,7.1018046583049e-05,7.00189484632574e-05,6.914186087669805e-05,6.821467104600742e-05,6.730113818775862e-05,6.642702646786347e-05,6.557625601999462e-05,6.460132135543972e-05,6.376874080160633e-05,6.295480125118047e-05,6.215384928509593e-05,6.126821244833991e-05,6.053646939108148e-05,5.9738078562077135e-05,5.899025563849136e-05,5.8255696785636246e-05,5.747974500991404e-05,5.677455192198977e-05,5.6092641898430884e-05,5.538828918361105e-05,5.469096140586771e-05,5.3955551265971735e-05,5.331006468622945e-05,5.2643696108134463e-05,5.202294050832279e-05,5.137148036737926e-05,5.070900442660786e-05,5.009660162613727e-05,4.950275979354046e-05
1,4.336843490600586,2.7918293476104736,2.592346429824829,2.4270927906036377,2.237624168395996,1.9656758308410645,1.664853572845459,1.3171460628509521,0.9411122798919678,0.6292588710784912,0.3961544930934906,0.22666603326797485,0.12214115262031555,0.0591864213347435,0.036343250423669815,0.02641991712152958,0.019447525963187218,0.014727492816746235,0.01226714812219143,0.010538412258028984,0.009030146524310112,0.007957720197737217,0.007060412783175707,0.006417268421500921,0.005745590198785067,0.005313394591212273,0.004797833971679211,0.0044129774905741215,0.004054873716086149,0.003776008263230324,0.00350023340433836,0.003268580650910735,0.0030342009849846363,0.0028412877582013607,0.0026673597749322653,0.0025182764511555433,0.0023791177663952112,0.0022348850034177303,0.002119663404300809,0.002014121739193797,0.0019111618166789412,0.001802045968361199,0.0017208089120686054,0.0016340974252671003,0.0015577367739751935,0.0014860444935038686,0.0014160507125779986,0.0013559561921283603,0.0013028155080974102,0.0012434616219252348,0.001195982564240694,0.0011448583099991083,0.001102748792618513,0.0010595964267849922,0.0010166941210627556,0.0009815581142902374,0.0009427560726180673,0.0009116263245232403,0.0008804734097793698,0.0008475996437482536,0.0008197182323783636,0.0007925713434815407,0.0007640247349627316,0.0007410357357002795,0.0007149024168029428,0.0006936314748600125,0.0006702107493765652,0.0006517014699056745,0.0006319117383100092,0.0006102269981056452,0.0005940302507951856,0.0005769216804765165,0.0005583428428508341,0.0005443253903649747,0.000527519325260073,0.0005130036734044552,0.0004986936692148447,0.0004867887473665178,0.0004725269682239741,0.0004604815330822021,0.00044791511027142406,0.0004361093451734632,0.00042565882904455066,0.00041543791303411126,0.0004048853588756174,0.00039436950464732945,0.00038516687345691025,0.0003764044085983187,0.000367261964129284,0.0003589484840631485,0.0003506762150209397,0.00034196925116702914,0.00033437649835832417,0.0003263854596298188,0.0003186811227351427,0.0003133701393380761,0.00030576076824218035,0.0002990771899931133,0.0002920756523963064,0.0002855544735211879,0.000279433123068884,0.00027376634534448385,0.0002677102165762335,0.00026220001745969057,0.0002567673509474844,0.00025182010722346604,0.00024706023395992815,0.00024232527357526124,0.00023678268189541996,0.00023234135005623102,0.00022784611792303622,0.000223731723963283,0.0002190179075114429,0.00021503954485524446,0.00021069991635158658,0.00020661622693296522,0.0002030212781392038,0.00019889924442395568,0.00019577122293412685,0.00019220409740228206,0.00018839490076061338,0.0001850104599725455,0.00018190352420788258,0.0001785690401447937,0.00017535194638185203,0.000172549465787597,0.0001694170932751149,0.00016634057101327926,0.00016345360199920833,0.00016083329683169723,0.00015799592074472457,0.0001552070170873776,0.00015292079478967935,0.00015000705025158823,0.00014780521451029927,0.0001450404670322314,0.00014267629012465477,0.00014029841986484826,0.0001380070170853287,0.00013593347102869302,0.00013381037570070475,0.00013167370343580842,0.00012959522427991033,0.0001278782292502001,0.00012562776100821793,0.00012359759421087801,0.00012182196223875508,0.00011979223199887201,0.0001179917308036238,0.00011624857143033296,0.00011446770076872781,0.00011286158405710012,0.00011106796591775492,0.0001095143670681864,0.0001078102650353685,0.00010637995001161471,0.00010455778829054907,0.00010316107363905758,0.00010165388812310994,0.0001002378121484071,9.894985851133242e-05,9.746854630066082e-05,9.606347157387063e-05,9.466525807511061e-05,9.334562491858378e-05,9.202455112244934e-05,9.082520409720019e-05,8.95909033715725e-05,8.838657959131524e-05,8.706864173291251e-05,8.593633538112044e-05,8.47620249260217e-05,8.365095709450543e-05,8.237133442889899e-05,8.140725549310446e-05,8.022141992114484e-05,7.922711665742099e-05,7.820425526006147e-05,7.714192906860262e-05,7.61686751502566e-05,7.513124728575349e-05,7.425380317727104e-05,7.328673382289708e-05,7.224096043501049e-05,7.131343591026962e-05,7.052689761621878e-05,6.95596681907773e-05,6.865135219413787e-05,6.77899006404914e-05,6.699407822452486e-05,6.615217716898769e-05,6.539600872201845e-05,6.440608558477834e-05,6.36812110315077e-05,6.282346294028684e-05,6.210983701748773e-05,6.132403359515592e-05,6.053839751984924e-05,5.982395668979734e-05,5.913152199354954e-05
2,4.449268341064453,2.863220453262329,2.553943157196045,2.3734471797943115,2.1215765476226807,1.8049708604812622,1.4466063976287842,1.0600489377975464,0.702417254447937,0.4226304292678833,0.21054288744926453,0.10553831607103348,0.06299984455108643,0.03649275749921799,0.023834140971302986,0.01791447214782238,0.013975820504128933,0.011703312397003174,0.01003526896238327,0.008636439219117165,0.0075835189782083035,0.0066796718165278435,0.005949943792074919,0.005335057154297829,0.004925495479255915,0.0044959238730371,0.004184233956038952,0.0038705719634890556,0.003540040459483862,0.0032787686213850975,0.00308624398894608,0.0028698404785245657,0.002700387267395854,0.002523180330172181,0.002366364235058427,0.002227713353931904,0.0021025752648711205,0.001989109441637993,0.001898141810670495,0.0018020939314737916,0.0016998962964862585,0.001620447146706283,0.0015561231411993504,0.0014802808873355389,0.0014028087025508285,0.0013468757970258594,0.001291682361625135,0.0012269052676856518,0.0011859259102493525,0.0011339655611664057,0.0010900719789788127,0.0010460402118042111,0.0010079777566716075,0.0009690659935586154,0.0009361276170238853,0.0008974454249255359,0.0008680971222929657,0.0008334584417752922,0.0008082312997430563,0.0007802681066095829,0.0007531554438173771,0.0007292928057722747,0.0007044322555884719,0.0006815724773332477,0.0006619644118472934,0.000638590136077255,0.00061845185700804,0.000600072497036308,0.0005839598015882075,0.0005650625680573285,0.0005525758606381714,0.0005354515160433948,0.0005179198924452066,0.0005036061629652977,0.000490371196065098,0.0004772728425450623,0.000464756740257144,0.00045373744796961546,0.00044266172335483134,0.00043051972170360386,0.000418896961491555,0.00040762595017440617,0.00039821903919801116,0.00038946548011153936,0.00037856216658838093,0.00037024778430350125,0.0003610356361605227,0.0003535485011525452,0.00034481933107599616,0.00033629810786806047,0.000328786059981212,0.00032136845402419567,0.0003145223599858582,0.0003073883708566427,0.00030108922510407865,0.000294692610623315,0.0002875399368349463,0.0002814848267007619,0.00027577101718634367,0.0002702985948417336,0.00026426598196849227,0.0002590157382655889,0.00025359875871799886,0.0002488771569915116,0.00024376084911637008,0.00023946203873492777,0.00023481746029574424,0.00022982667724136263,0.00022554982569999993,0.00022056546004023403,0.0002171612431993708,0.0002132773952325806,0.00020881742238998413,0.0002048939495580271,0.00020115029474254698,0.00019718261319212615,0.0001935634936671704,0.00019018450984731317,0.0001865624071797356,0.00018340001406613737,0.00018016445392277092,0.00017731264233589172,0.00017414652393199503,0.00017121528799179941,0.0001679834967944771,0.000165736026247032,0.00016239237447734922,0.00015966063074301928,0.00015698751667514443,0.00015414110384881496,0.00015184823132585734,0.00014919509703759104,0.00014686313807033002,0.00014419887156691402,0.00014222778554540128,0.00013999376096762717,0.00013761316949967295,0.00013544857210945338,0.00013356497220229357,0.00013118777133058757,0.00012957170838490129,0.00012714492913801223,0.00012533774133771658,0.00012330150639172643,0.00012135856377426535,0.00011937999806832522,0.00011762128997361287,0.0001159178646048531,0.00011395115870982409,0.00011242262553423643,0.00011057441588491201,0.00010908055992331356,0.00010741335427155718,0.00010590233432594687,0.00010442897473694757,0.00010281889990437776,0.00010134034528164193,0.00010000671318266541,9.856693941401318e-05,9.717427747091278e-05,9.583080827724189e-05,9.45393112488091e-05,9.328086889581755e-05,9.185328963212669e-05,9.071086242329329e-05,8.929673640523106e-05,8.804319077171385e-05,8.682303450768813e-05,8.571748912800103e-05,8.454144699499011e-05,8.342506043845788e-05,8.22926958790049e-05,8.125801105052233e-05,8.01439382485114e-05,7.911050488473848e-05,7.795362762408331e-05,7.694500527577475e-05,7.608446321683004e-05,7.509124407079071e-05,7.393594569293782e-05,7.305231702048331e-05,7.215866935439408e-05,7.119880319805816e-05,7.037541945464909e-05,6.940553430467844e-05,6.855244282633066e-05,6.765664147678763e-05,6.681281956844032e-05,6.596079765586182e-05,6.520521128550172e-05,6.437329284381121e-05,6.353385106194764e-05,6.281402602326125e-05,6.207533442648128e-05,6.138305616332218e-05,6.0502316046040505e-05,5.98103906668257e-05,5.913640052312985e-05,5.842485188622959e-05,5.7612396631157026e-05
3,4.356524467468262,2.777359962463379,2.560573101043701,2.375180244445801,2.1531808376312256,1.8633973598480225,1.4751735925674438,1.1317845582962036,0.7281808853149414,0.44943034648895264,0.24895718693733215,0.1376059502363205,0.06370173394680023,0.03528621420264244,0.02370290271937847,0.016675399616360664,0.01277941558510065,0.010917790234088898,0.009394064545631409,0.007886938750743866,0.006828817538917065,0.006096937693655491,0.005394594743847847,0.004911576863378286,0.004539251793175936,0.004149006213992834,0.0037877089343965054,0.003452852601185441,0.003206008579581976,0.002969338558614254,0.0027705004904419184,0.0026036810595542192,0.0024387312587350607,0.002305361209437251,0.0021512459497898817,0.0020316613372415304,0.0019229704048484564,0.0018128340598195791,0.0017236799467355013,0.001639263005927205,0.0015598222380504012,0.0014805723913013935,0.0014185466570779681,0.001352160470560193,0.001286785351112485,0.001230008783750236,0.0011795319151133299,0.001127338269725442,0.001079103909432888,0.0010392707772552967,0.000993314548395574,0.0009588009561412036,0.0009238246129825711,0.0008868391159921885,0.0008565595489926636,0.0008261539624072611,0.000798058754298836,0.0007702597067691386,0.0007407631492242217,0.0007151361205615103,0.0006926278001628816,0.000672062044031918,0.0006499517476186156,0.0006291915196925402,0.0006100159953348339,0.0005916309310123324,0.0005740777705796063,0.0005561492289416492,0.0005401915987022221,0.0005255776923149824,0.0005111778737045825,0.0004967312561348081,0.0004821819893550128,0.0004691205976996571,0.0004552881873678416,0.000441932090325281,0.00043259598896838725,0.00041893322486430407,0.000408141320804134,0.0003983645001426339,0.00038796025910414755,0.00037835119292140007,0.0003692395694088191,0.00036033400101587176,0.00035146033042110503,0.0003429732460062951,0.0003363718278706074,0.0003276289498899132,0.00031953578582033515,0.0003119492612313479,0.00030494428938254714,0.0002992041117977351,0.00029184436425566673,0.0002856152132153511,0.0002787334960885346,0.0002732548164203763,0.00026697071734815836,0.00026128775789402425,0.0002557526167947799,0.0002506719611119479,0.0002450249157845974,0.00024045322788879275,0.00023564741422887892,0.00023101265833247453,0.00022612606699112803,0.00022154954785946757,0.00021735308109782636,0.00021270799334160984,0.00020886518177576363,0.00020484044216573238,0.00020135210070293397,0.0001969636941794306,0.00019340903963893652,0.00018951242964249104,0.00018613625434227288,0.00018303291290067136,0.00017949537141248584,0.0001761425955919549,0.00017317848687525839,0.00017005103291012347,0.00016694948135409504,0.00016398064326494932,0.0001611473853699863,0.00015852376236580312,0.00015548313967883587,0.00015296327183023095,0.00015050712681841105,0.00014815822942182422,0.00014542642747983336,0.0001429035037290305,0.0001404906652169302,0.00013835550635121763,0.00013573473552241921,0.0001338501606369391,0.00013159010268282145,0.00012941498425789177,0.00012741032696794719,0.00012523360783234239,0.00012335281644482166,0.00012151262490078807,0.00011931867629755288,0.00011753461876651272,0.00011582495790207759,0.00011411740706535056,0.00011240330059081316,0.00011052524496335536,0.00010886368545470759,0.00010718035628087819,0.00010557582572801039,0.00010402352927485481,0.00010244814620818943,0.00010133831528946757,9.955350105883554e-05,9.801018313737586e-05,9.667743142927065e-05,9.517189755570143e-05,9.384530130773783e-05,9.247090201824903e-05,9.118287562159821e-05,8.98712532944046e-05,8.862110553309321e-05,8.74064935487695e-05,8.614012767793611e-05,8.511345367878675e-05,8.379761129617691e-05,8.270815305877477e-05,8.15547609818168e-05,8.052072371356189e-05,7.931932486826554e-05,7.828564412193373e-05,7.730409561190754e-05,7.616915536345914e-05,7.517669291701168e-05,7.426076626870781e-05,7.316713163163513e-05,7.226787420222536e-05,7.144489791244268e-05,7.033246947685257e-05,6.948922964511439e-05,6.861404835944995e-05,6.769406900275499e-05,6.688865687465295e-05,6.604615919059142e-05,6.516201392514631e-05,6.43614839646034e-05,6.360987026710063e-05,6.28031266387552e-05,6.204481178428978e-05,6.123111234046519e-05,6.045144618838094e-05,5.973574297968298e-05,5.900622272747569e-05,5.825990956509486e-05,5.7543562434148043e-05,5.6853612477425486e-05,5.6188233429566026e-05,5.548139597522095e-05,5.4806187108624727e-05,5.417234933702275e-05,5.353644519345835e-05
4,4.187558174133301,2.867478370666504,2.5821120738983154,2.4159672260284424,2.224560260772705,1.9572091102600098,1.6273248195648193,1.239227056503296,0.8360248804092407,0.5091686844825745,0.28154170513153076,0.15144604444503784,0.09181035310029984,0.049442894756793976,0.02865321934223175,0.02020890638232231,0.014839916490018368,0.011826828122138977,0.009897946380078793,0.008221953175961971,0.007214582525193691,0.006482858210802078,0.005811540875583887,0.005176311358809471,0.004639660473912954,0.0042699286714196205,0.003917333669960499,0.003634953172877431,0.0033733572345227003,0.003107849508523941,0.0028995289467275143,0.0027173012495040894,0.002527430187910795,0.0023794816806912422,0.0022161887027323246,0.002096721436828375,0.00198147795163095,0.0018809407483786345,0.001778290024958551,0.001670610043220222,0.0015922050224617124,0.001512658316642046,0.0014415563782677054,0.0013775302795693278,0.001308501698076725,0.0012528473744168878,0.0011972866486757994,0.0011450215242803097,0.0010964748216792941,0.0010546225821599364,0.001014822511933744,0.0009742026450112462,0.0009346264996565878,0.0008980512502603233,0.0008653434342704713,0.0008354182937182486,0.0008056131773628294,0.0007759250584058464,0.0007520946091972291,0.0007262735744006932,0.0006976344739086926,0.0006761333788745105,0.000655225885566324,0.0006318758241832256,0.0006145830266177654,0.0005930225597694516,0.000574155303183943,0.0005577366100624204,0.0005424150731414557,0.0005264081992208958,0.0005089314072392881,0.0004954849719069898,0.0004818432789761573,0.00046804704470559955,0.0004541280504781753,0.00044327531941235065,0.00043025455670431256,0.00041891675209626555,0.00040762205026112497,0.0003983117640018463,0.000387849984690547,0.0003772551426663995,0.0003692141326609999,0.0003596387105062604,0.000350244517903775,0.0003415686951484531,0.0003336968657094985,0.00032474551699124277,0.0003174942103214562,0.00031114587909542024,0.0003032587410416454,0.00029607172473333776,0.0002897324739024043,0.0002831648744177073,0.0002769599377643317,0.0002707137318793684,0.0002647946821525693,0.0002592691162135452,0.0002536893589422107,0.00024839601246640086,0.0002428461011731997,0.00023822502407711,0.00023343761858996004,0.0002287173265358433,0.00022438236919697374,0.00021962694881949574,0.0002148132916772738,0.0002106791507685557,0.0002064474974758923,0.0002024903951678425,0.00019821376190520823,0.0001950343867065385,0.00019137233903165907,0.00018748843285720795,0.00018398540851194412,0.00018054050451610237,0.00017738969472702593,0.00017439450311940163,0.0001713742094580084,0.00016776072152424604,0.00016493056318722665,0.00016224537102971226,0.00015919747238513082,0.00015638193872291595,0.00015359229291789234,0.00015123322373256087,0.00014837778871878982,0.0001458471524529159,0.00014341295172926039,0.00014106981689110398,0.00013869485701434314,0.00013644181308336556,0.00013402629701886326,0.0001320144219789654,0.00012982942280359566,0.00012790072651114315,0.00012581142073031515,0.000123735168017447,0.00012174373114248738,0.00011985977471340448,0.00011795614409493282,0.00011622917372733355,0.00011427134450059384,0.00011251229443587363,0.00011083351273555309,0.0001091517333406955,0.00010762684541987255,0.00010587045107968152,0.00010440256301080808,0.00010279652633471414,0.000101325917057693,9.983200288843364e-05,9.84029466053471e-05,9.677052003098652e-05,9.544223576085642e-05,9.417183900950477e-05,9.276643686462194e-05,9.148335084319115e-05,9.010267240228131e-05,8.887208969099447e-05,8.759812044445425e-05,8.637364953756332e-05,8.51218355819583e-05,8.392391464440152e-05,8.286489901365712e-05,8.168545173248276e-05,8.059322863118723e-05,7.960695802466944e-05,7.831973198335618e-05,7.733727397862822e-05,7.637582893949002e-05,7.52717605791986e-05,7.438557804562151e-05,7.33449196559377e-05,7.240400009322912e-05,7.139967783587053e-05,7.046532846288756e-05,6.952771218493581e-05,6.872114317957312e-05,6.780843978049234e-05,6.690774898743257e-05,6.606987881241366e-05,6.519766611745581e-05,6.439423304982483e-05,6.358294194797054e-05,6.280152592808008e-05,6.201142241479829e-05,6.12429139437154e-05,6.046001726645045e-05,5.976558895781636e-05,5.891008913749829e-05,5.8212353906128556e-05,5.75367157580331e-05,5.6871933338698e-05,5.6124288676073775e-05,5.5458582210121676e-05,5.477451122715138e-05,5.4089523473521695e-05,5.350924766389653e-05,5.2786923333769664e-05
5,4.446832656860352,2.835582733154297,2.61128306388855,2.460008144378662,2.2794954776763916,2.035562515258789,1.7529401779174805,1.3568694591522217,1.0390756130218506,0.7324078679084778,0.43200162053108215,0.23916615545749664,0.11588147282600403,0.06358736008405685,0.03690791130065918,0.025354528799653053,0.017170405015349388,0.013569883070886135,0.01119186356663704,0.009655355475842953,0.00850762240588665,0.007476629223674536,0.0065153068862855434,0.005815823096781969,0.0052583240903913975,0.004788319580256939,0.004382575396448374,0.004018239676952362,0.0037219407968223095,0.003481523133814335,0.003226236440241337,0.002960764802992344,0.002760075032711029,0.002588114934042096,0.0024667074903845787,0.002306376351043582,0.0021584376227110624,0.00205697538331151,0.00195213477127254,0.0018278349889442325,0.0017302290070801973,0.0016447808593511581,0.0015647916588932276,0.0014878888614475727,0.0014176840195432305,0.0013591559836640954,0.0013046936364844441,0.001248220563866198,0.0011911483015865088,0.0011398799251765013,0.0010967034613713622,0.001048692618496716,0.0010102306259796023,0.0009727456490509212,0.0009346276638098061,0.0009032431407831609,0.0008691908442415297,0.0008367776754312217,0.0008065087022259831,0.0007797934231348336,0.0007543581887148321,0.000729634310118854,0.0007044576923362911,0.0006814465741626918,0.0006593039724975824,0.0006381417042575777,0.0006195917376317084,0.0006018986459821463,0.0005838629440404475,0.0005651803221553564,0.0005489123286679387,0.0005332955624908209,0.0005176326958462596,0.0005050836480222642,0.0004898437764495611,0.00047594498028047383,0.00046356531674973667,0.000450223422376439,0.00043945113429799676,0.00042833469342440367,0.00041721612797118723,0.0004054026794619858,0.00039605452911928296,0.0003857108822558075,0.0003757806262001395,0.0003674264589790255,0.00035862388904206455,0.00034947978565469384,0.00034273340133950114,0.0003329799510538578,0.00032518821535632014,0.00031767497421242297,0.0003107104857917875,0.00030463008442893624,0.000296772486763075,0.00029074950725771487,0.00028459029272198677,0.00027839152608066797,0.00027195404982194304,0.00026667918427847326,0.0002610902301967144,0.0002550948120187968,0.00024965513148345053,0.0002445446152705699,0.0002398291981080547,0.0002346654946450144,0.00022997947235126048,0.00022540785721503198,0.000221299531403929,0.00021656347962561995,0.00021265794930513948,0.00020855266484431922,0.00020439407671801746,0.00020049930026289076,0.00019703531870618463,0.00019332717056386173,0.00018937536515295506,0.00018632280989550054,0.00018316158093512058,0.00017971030320040882,0.0001759458682499826,0.0001729254290694371,0.0001700469438219443,0.0001668227487243712,0.00016402735491283238,0.00016098716878332198,0.00015833642100915313,0.00015556139987893403,0.00015302267274819314,0.00015036565309856087,0.00014776160242035985,0.0001454951416235417,0.00014297704910859466,0.00014063795970287174,0.00013817042054142803,0.000135987633257173,0.00013367600331548601,0.00013156712520867586,0.00012961293396074325,0.0001274983078474179,0.00012557487934827805,0.00012366380542516708,0.00012163123756181449,0.00011959336552536115,0.00011777500185417011,0.00011602891754591838,0.00011424016702221707,0.00011249106319155544,0.00011089106556028128,0.00010925121750915423,0.0001076020926120691,0.00010598918743198738,0.00010433400893816724,0.00010283458686899394,0.00010165934509132057,0.00010007269884226844,9.852401854004711e-05,9.696717461338267e-05,9.568749374011531e-05,9.422986477147788e-05,9.288099681725726e-05,9.16137287276797e-05,9.03611071407795e-05,8.900801185518503e-05,8.782425720710307e-05,8.660681487526745e-05,8.551675273338333e-05,8.421546226600185e-05,8.310439443448558e-05,8.19360138848424e-05,8.083710417849943e-05,7.975978223839775e-05,7.864653889555484e-05,7.753429235890508e-05,7.667425961699337e-05,7.546964479843155e-05,7.450164412148297e-05,7.357886352110654e-05,7.260368147399276e-05,7.174025085987523e-05,7.075984467519447e-05,6.979500903980806e-05,6.896708509884775e-05,6.813187064835802e-05,6.715677591273561e-05,6.623373337788507e-05,6.543857307406142e-05,6.462173041654751e-05,6.381879938999191e-05,6.305692659225315e-05,6.219331407919526e-05,6.14639648119919e-05,6.068429502192885e-05,5.9935984609182924e-05,5.9164252888876945e-05,5.842744940309785e-05,5.773749217041768e-05,5.701212285202928e-05,5.632895408780314e-05,5.570190114667639e-05
6,4.4477362632751465,2.8888092041015625,2.5951409339904785,2.447575330734253,2.249788284301758,2.0095887184143066,1.6883701086044312,1.328939437866211,0.9510923027992249,0.6282236576080322,0.4072186052799225,0.23505748808383942,0.1334802806377411,0.06675241887569427,0.04012996703386307,0.024448249489068985,0.017672939226031303,0.014393193647265434,0.0120317367836833,0.010247193276882172,0.008924202993512154,0.007869905792176723,0.007049565203487873,0.006292204838246107,0.0057440889067947865,0.005207499023526907,0.0048228842206299305,0.0043991985730826855,0.004097596742212772,0.0038022352382540703,0.0035364837385714054,0.0033147153444588184,0.0030934566166251898,0.0028990344144403934,0.0027128083165735006,0.00255416426807642,0.002425889950245619,0.00228497083298862,0.00216312357224524,0.0020444183610379696,0.0019435047870501876,0.0018480682047083974,0.0017546206945553422,0.0016685017617419362,0.0015927322674542665,0.0015197850298136473,0.0014604507014155388,0.0013922941870987415,0.0013348771026358008,0.0012745695421472192,0.0012253067689016461,0.0011796359904110432,0.0011280024191364646,0.0010895871091634035,0.0010487991385161877,0.0010141534730792046,0.0009687208221293986,0.0009343097335658967,0.0009020859142765403,0.0008724761428311467,0.000837888743262738,0.000812546641100198,0.0007866034284234047,0.0007601684192195535,0.000740137358661741,0.000716481008566916,0.0006878376007080078,0.000670573499519378,0.0006473976536653936,0.0006280917441472411,0.0006098209414631128,0.0005911876796744764,0.0005755079910159111,0.0005614236579276621,0.0005437348154373467,0.0005290556000545621,0.0005128462216816843,0.0004997964715585113,0.00048591464292258024,0.0004726465849671513,0.00046172080328688025,0.0004495262692216784,0.0004367822257336229,0.0004273845988791436,0.00041590112959966063,0.00040748578612692654,0.00039607842336408794,0.00038747486541979015,0.00037763238651677966,0.0003692923637572676,0.0003595133312046528,0.0003510285459924489,0.00034355040406808257,0.00033628634992055595,0.00032821387867443264,0.0003211525618098676,0.0003140436892863363,0.0003076577850151807,0.0003010859072674066,0.00029451187583617866,0.00028830612427555025,0.00028231056057848036,0.00027641994529403746,0.00027091216179542243,0.0002654298150446266,0.0002601811138447374,0.0002549275232013315,0.0002495230583008379,0.000245263974647969,0.00024000169651117176,0.00023624439199920744,0.0002305018570041284,0.0002269479591632262,0.00022195927158463746,0.00021790982282254845,0.00021381949773058295,0.00020994899387005717,0.00020635614055208862,0.00020243825565557927,0.00019862933550029993,0.00019521848298609257,0.00019122619414702058,0.00018801496480591595,0.0001850282133091241,0.00018162946798838675,0.00017859981744550169,0.00017536415543872863,0.0001722524466458708,0.00016936178144533187,0.00016683585999999195,0.00016358568973373622,0.00016096113540697843,0.00015823821013327688,0.00015570387768093497,0.00015340893878601491,0.00015055325638968498,0.00014810888387728482,0.00014595188258681446,0.0001434838050045073,0.00014123912842478603,0.00013907087850384414,0.00013686796592082828,0.00013471335114445537,0.00013265984307508916,0.00013059290358796716,0.00012852017243858427,0.00012662528024520725,0.00012468513159547,0.00012298327055759728,0.00012105543282814324,0.0001192639974760823,0.00011739818000933155,0.00011569190246518701,0.000114232643682044,0.0001122156172641553,0.00011069700121879578,0.00010905747330980375,0.00010761941666714847,0.00010606485011521727,0.00010455650044605136,0.00010303292947355658,0.00010151123569812626,0.00010020816989708692,9.874151146505028e-05,9.739536471897736e-05,9.588561078999192e-05,9.466624760534614e-05,9.325264545623213e-05,9.213601879309863e-05,9.080254676518962e-05,8.949854964157566e-05,8.829716534819454e-05,8.727414387976751e-05,8.5924104496371e-05,8.483504643663764e-05,8.377478661714122e-05,8.262081973953173e-05,8.151371002895758e-05,8.045610593399033e-05,7.926936086732894e-05,7.829500827938318e-05,7.734284008620307e-05,7.627023296663538e-05,7.529506547143683e-05,7.436879968736321e-05,7.338517752941698e-05,7.251504575833678e-05,7.153465412557125e-05,7.066657417453825e-05,6.97228460921906e-05,6.893696991028264e-05,6.812302308389917e-05,6.719899829477072e-05,6.635914178332314e-05,6.554511492140591e-05,6.472539098467678e-05,6.392955401679501e-05,6.31971561233513e-05,6.246093107620254e-05,6.161786586744711e-05
7,4.489507675170898,2.9618375301361084,2.5977163314819336,2.429527997970581,2.234489679336548,1.9811413288116455,1.677780032157898,1.2954961061477661,0.8984593152999878,0.6128841638565063,0.3389609158039093,0.18869198858737946,0.1020381897687912,0.05720735713839531,0.03440313786268234,0.02219105325639248,0.016287045553326607,0.012847214005887508,0.0104778241366148,0.009077193215489388,0.007876044139266014,0.006933744065463543,0.006212174892425537,0.00557176535949111,0.00504674855619669,0.0046262540854513645,0.004232246894389391,0.003894077381119132,0.00360339623875916,0.0033465505111962557,0.0031251295004040003,0.0029206981416791677,0.0027585274074226618,0.0025924888905137777,0.0024113510735332966,0.0022646088618785143,0.0021334472112357616,0.002033101161941886,0.0019033225253224373,0.0018182091880589724,0.0017253635451197624,0.001646168646402657,0.0015641134232282639,0.0014916828367859125,0.0014269946841523051,0.0013524816604331136,0.0012973741395398974,0.001239854609593749,0.0011865261476486921,0.0011421360541135073,0.0011029979214072227,0.0010570220183581114,0.0010143353138118982,0.0009736904758028686,0.0009379595285281539,0.0009036377305164933,0.0008763453224673867,0.0008434161427430809,0.000813042453955859,0.0007854553405195475,0.0007561358506791294,0.0007325870101340115,0.000707121507730335,0.000686749117448926,0.0006628395058214664,0.0006429427885450423,0.0006228035781532526,0.0006069771479815245,0.000588038528803736,0.000569273135624826,0.0005534329102374613,0.0005369041464291513,0.0005244599306024611,0.0005076996167190373,0.0004959969082847238,0.00047982955584302545,0.00046766226296313107,0.00045475922524929047,0.00044263535528443754,0.00043139481567777693,0.0004217778623569757,0.00041056564077734947,0.00040169080602936447,0.00038994534406811,0.00038115170900709927,0.0003719324595294893,0.0003631704021245241,0.0003562156925909221,0.00034568694536574185,0.0003391251084394753,0.0003305034479126334,0.00032309445668943226,0.00031566116376779974,0.00030889135086908937,0.0003017661802005023,0.0002957330725621432,0.00028935098089277744,0.00028277953970246017,0.0002766413672361523,0.00027068250346928835,0.000265208218479529,0.00025993402232415974,0.0002540681161917746,0.0002498780086170882,0.0002449634484946728,0.00023920151579659432,0.00023497577058151364,0.00023012513702269644,0.00022529775742441416,0.00022115377942100167,0.00021702854428440332,0.00021378256496973336,0.00020910489547532052,0.00020484464766923338,0.00020131825294811279,0.00019762333249673247,0.00019383621111046523,0.00019022077322006226,0.00018691532022785395,0.00018365592404734343,0.00018004901357926428,0.0001772487594280392,0.00017407015548087656,0.0001711971708573401,0.00016827478248160332,0.00016501608479302377,0.00016222684644162655,0.00015958547010086477,0.00015680273645557463,0.0001539300283184275,0.00015143783821258694,0.00014921325782779604,0.00014647691568825394,0.00014449941227212548,0.0001420599000994116,0.0001394718128722161,0.00013712706277146935,0.0001350419333903119,0.00013280245184432715,0.0001308189966948703,0.00012880640861112624,0.0001267218467546627,0.00012481515295803547,0.00012279888323973864,0.00012104826600989327,0.00011906897998414934,0.00011732784332707524,0.00011551078932825476,0.00011362328223185614,0.00011194671969860792,0.00011042284313589334,0.00010866153024835512,0.0001070120488293469,0.00010551737796049565,0.00010389852104708552,0.00010248565376969054,0.00010109360300702974,9.950436651706696e-05,9.79617252596654e-05,9.668114216765389e-05,9.52000918914564e-05,9.395428060088307e-05,9.261350351152942e-05,9.140085603576154e-05,9.003056038636714e-05,8.884861745173112e-05,8.754675218369812e-05,8.639875159133226e-05,8.524892473360524e-05,8.408725989283994e-05,8.281195914605632e-05,8.167257328750566e-05,8.057010563788936e-05,7.954219472594559e-05,7.842067134333774e-05,7.746097253402695e-05,7.649002509424463e-05,7.538207864854485e-05,7.450373232131824e-05,7.342608296312392e-05,7.250496855704114e-05,7.161512621678412e-05,7.071973959682509e-05,6.975737778702751e-05,6.883955938974395e-05,6.794938235543668e-05,6.710373418172821e-05,6.621761713176966e-05,6.545085489051417e-05,6.46373227937147e-05,6.377188401529565e-05,6.302416295511648e-05,6.222230149433017e-05,6.144048529677093e-05,6.068911898182705e-05,5.995778337819502e-05,5.9211863117525354e-05,5.8509005611995235e-05,5.777757542091422e-05,5.710045661544427e-05
8,4.519154071807861,2.9088196754455566,2.600738763809204,2.4351084232330322,2.232171058654785,1.9649542570114136,1.6366889476776123,1.2772058248519897,0.869689404964447,0.5296123027801514,0.34038352966308594,0.1686176210641861,0.09427670389413834,0.05291920155286789,0.0321897454559803,0.02191888727247715,0.01598159782588482,0.013097599148750305,0.010891997255384922,0.009274679236114025,0.007966204546391964,0.0071148076094686985,0.006336136721074581,0.0057539925910532475,0.005163414403796196,0.004683058243244886,0.004313576500862837,0.0039928448386490345,0.003658983390778303,0.0034169775899499655,0.0031797392293810844,0.002985292347148061,0.0027500689029693604,0.002571391174569726,0.002417647745460272,0.0022713018115609884,0.00215404131449759,0.0020268436055630445,0.0019161427626386285,0.0018129994859918952,0.0017181768780574203,0.0016258948016911745,0.0015523966867476702,0.0014775310410186648,0.0014112112112343311,0.0013513399753719568,0.0012921150773763657,0.0012335797073319554,0.0011832956224679947,0.0011326665990054607,0.0010832129046320915,0.0010425994405522943,0.0010003444040194154,0.0009657115442678332,0.0009273631148971617,0.0008955648518167436,0.0008607246563769877,0.0008310340344905853,0.0008024767157621682,0.0007733090897090733,0.0007446078234352171,0.0007211281335912645,0.0006986711523495615,0.0006740614771842957,0.0006540730246342719,0.0006333269411697984,0.000613830576185137,0.0005947084864601493,0.0005757631151936948,0.0005600911099463701,0.0005428822478279471,0.0005269855610094965,0.0005128101911395788,0.0004984224215149879,0.00048365493421442807,0.00047077349154278636,0.0004586387367453426,0.0004464726953301579,0.00043414367246441543,0.00042308095726184547,0.0004116313357371837,0.0004010074771940708,0.00039254111470654607,0.0003814007213804871,0.0003715119091793895,0.00036236963933333755,0.00035432970616966486,0.00034499511821195483,0.0003370625199750066,0.0003295975620858371,0.00032219759305007756,0.0003145142109133303,0.00030687349499203265,0.00030051663634367287,0.000293134682578966,0.00028682706761173904,0.0002804379619192332,0.00027461949503049254,0.0002688431413844228,0.0002634109987411648,0.0002574805694166571,0.00025249033933505416,0.000246627809247002,0.00024162206682376564,0.00023687341308686882,0.0002319175546290353,0.00022746440663468093,0.00022273971990216523,0.00021843700960744172,0.0002142992743756622,0.00021022387954872102,0.00020610721549019217,0.00020247610518708825,0.00019836160936392844,0.00019455004076007754,0.00019090248679276556,0.00018745679699350148,0.00018401302804704756,0.00018075188563670963,0.00017749852850101888,0.00017421584925614297,0.00017102374113164842,0.00016798218712210655,0.0001647856115596369,0.00016196139040403068,0.00015943089965730906,0.0001565182174090296,0.00015372756752185524,0.00015113010886125267,0.00014864400145597756,0.00014582002768293023,0.00014368895790539682,0.00014131251373328269,0.00013874466822016984,0.00013652877532877028,0.00013419346942100674,0.00013215516810305417,0.0001299521973123774,0.00012786452134605497,0.00012596890155691653,0.00012378219980746508,0.00012193061411380768,0.00011998395348200575,0.00011801398795796558,0.00011628783249761909,0.00011472163168946281,0.00011288608220638707,0.0001109858276322484,0.00010940026550088078,0.00010773239773698151,0.00010605815623421222,0.00010446924716234207,0.00010305292380508035,0.00010148132423637435,0.00010012352140620351,9.844001760939136e-05,9.711132588563487e-05,9.564936044625938e-05,9.421036520507187e-05,9.287911234423518e-05,9.150781261269003e-05,9.031313675222918e-05,8.898644591681659e-05,8.774821617407724e-05,8.656048885313794e-05,8.539609552826732e-05,8.406945562455803e-05,8.294214785564691e-05,8.184894250007346e-05,8.07145843282342e-05,7.970383012434468e-05,7.861773337936029e-05,7.743753667455167e-05,7.648587052244693e-05,7.541076774941757e-05,7.436465239152312e-05,7.339418516494334e-05,7.258761615958065e-05,7.15447313268669e-05,7.066920807119459e-05,6.973260315135121e-05,6.874101381981745e-05,6.788915197830647e-05,6.701620441162959e-05,6.614298763452098e-05,6.526969082187861e-05,6.455622497014701e-05,6.369625771185383e-05,6.284871778916568e-05,6.203733937582001e-05,6.122082413639873e-05,6.054295226931572e-05,5.9751939261332154e-05,5.900868200114928e-05,5.8225101383868605e-05,5.759549094364047e-05,5.683560448233038e-05,5.614027031697333e-05,5.548061017179862e-05,5.478055390994996e-05
9,3.81793212890625,2.673006772994995,2.4993810653686523,2.2926230430603027,2.0314128398895264,1.668529987335205,1.2571256160736084,0.8424168229103088,0.545308530330658,0.2567279636859894,0.12768606841564178,0.06138692423701286,0.0395636148750782,0.02409408614039421,0.01775485649704933,0.013927114196121693,0.010764203034341335,0.009033536538481712,0.007848605513572693,0.006721253506839275,0.006027580704540014,0.005372073035687208,0.00484381103888154,0.004422508645802736,0.0040440913289785385,0.003703313646838069,0.0033984004985541105,0.003150598844513297,0.002923552179709077,0.002739782677963376,0.0025262325070798397,0.0023748567327857018,0.0022322486620396376,0.0021026264876127243,0.001976256025955081,0.0018585940124467015,0.0017602666048333049,0.00167011225130409,0.0015900927828624845,0.0015128920786082745,0.001437519327737391,0.0013688761973753572,0.0013059525517746806,0.00124426931142807,0.0011896328069269657,0.001142493449151516,0.0010937103070318699,0.0010454879375174642,0.0010044636437669396,0.0009680918301455677,0.0009253494208678603,0.0008928709430620074,0.0008622253662906587,0.0008250857936218381,0.0007975740008987486,0.0007689917110837996,0.0007432819111272693,0.000716348469723016,0.0006910999654792249,0.0006679908838123083,0.0006463387398980558,0.0006245330441743135,0.000603705586399883,0.0005851755267940462,0.0005680790636688471,0.0005527334287762642,0.0005359746282920241,0.0005197603022679687,0.0005028417217545211,0.0004896492464467883,0.00047473047743551433,0.0004614049685187638,0.0004479266353882849,0.0004372536204755306,0.0004252193321008235,0.0004129872831981629,0.0004020189226139337,0.0003922134928870946,0.00038133247289806604,0.00037199025973677635,0.0003624281089287251,0.0003538747550919652,0.00034380226861685514,0.0003364031435921788,0.0003291918255854398,0.00031962236971594393,0.000312782300170511,0.0003046101483050734,0.00029817107133567333,0.00029204972088336945,0.000285270216409117,0.00027838803362101316,0.00027140576275996864,0.00026597545365802944,0.00026068309671245515,0.0002546478935983032,0.0002491061750333756,0.00024345792189706117,0.00023845088435336947,0.00023370413691736758,0.00022883203928358853,0.00022382332826964557,0.00021977302094455808,0.0002145442267647013,0.00021043859305791557,0.00020639269496314228,0.00020230301015544683,0.0001984714181162417,0.0001950255100382492,0.0001907781552290544,0.00018693770107347518,0.00018359847308602184,0.00018026230100076646,0.0001766911882441491,0.00017347974062431604,0.0001705194590613246,0.00016717493417672813,0.00016425078501924872,0.00016109830175992101,0.0001582048716954887,0.00015551284013781697,0.00015290180454030633,0.00014989855117164552,0.00014726918016094714,0.00014474094496108592,0.00014224961341824383,0.0001400958572048694,0.0001378825691062957,0.00013517322076950222,0.00013293109077494591,0.00013069009582977742,0.0001286338665522635,0.0001264457532670349,0.00012443192827049643,0.00012246400001458824,0.00012060590233886614,0.00011850733426399529,0.00011667187936836854,0.00011488623567856848,0.0001131111930590123,0.00011124670709250495,0.0001095319094019942,0.00010783830657601357,0.00010616141662467271,0.00010472340363776311,0.00010301523434463888,0.00010150796151719987,9.982785559259355e-05,9.8466407507658e-05,9.703797695692629e-05,9.562379273120314e-05,9.408015466760844e-05,9.279235382564366e-05,9.155074803857133e-05,9.006344771478325e-05,8.879834058461711e-05,8.746542880544439e-05,8.644074841868132e-05,8.50260621518828e-05,8.378376514883712e-05,8.258775778813288e-05,8.146666368702427e-05,8.040299144340679e-05,7.921642099972814e-05,7.810771785443649e-05,7.707113400101662e-05,7.600489334436134e-05,7.493841258110479e-05,7.392325642285869e-05,7.280941645149142e-05,7.189341704361141e-05,7.086036930559203e-05,6.995711009949446e-05,6.898679566802457e-05,6.817095709266141e-05,6.721563113387674e-05,6.624756497330964e-05,6.546979420818388e-05,6.465642945840955e-05,6.390737689798698e-05,6.294749618973583e-05,6.21145882178098e-05,6.132663111202419e-05,6.050150841474533e-05,5.975212116027251e-05,5.900721225771122e-05,5.833746035932563e-05,5.753898585680872e-05,5.679761670762673e-05,5.602364763035439e-05,5.534214142244309e-05,5.4636704589938745e-05,5.3982847020961344e-05,5.334180605132133e-05,5.2673040045192465e-05,5.202050306252204e-05,5.138344204169698e-05,5.077460809843615e-05,5.0164358981419355e-05,4.954864925821312e-05
10,4.338277339935303,2.7546181678771973,2.557785987854004,2.39943790435791,2.191378355026245,1.8967045545578003,1.572319746017456,1.226450800895691,0.781126856803894,0.484211266040802,0.2630251348018646,0.12847056984901428,0.07118262350559235,0.043448325246572495,0.025676973164081573,0.01856028288602829,0.014228563755750656,0.011806379072368145,0.009710466489195824,0.008279990404844284,0.007410311605781317,0.00657386239618063,0.005820202175527811,0.005240175407379866,0.004806602373719215,0.00432635797187686,0.003969753626734018,0.003671283135190606,0.003394792787730694,0.0031366990879178047,0.002901995088905096,0.002717157592996955,0.0025389189831912518,0.002382811391726136,0.0022439775057137012,0.002112469170242548,0.0019875492434948683,0.0018834711518138647,0.0017916010692715645,0.0016931833233684301,0.0016097129555419087,0.0015304505359381437,0.0014587037730962038,0.0013868790119886398,0.0013269266346469522,0.0012645883252844214,0.001209856360219419,0.0011582834413275123,0.0011164771858602762,0.0010754219256341457,0.0010302888695150614,0.0009826539317145944,0.0009412859217263758,0.0009069883963093162,0.0008753008441999555,0.0008438379154540598,0.0008166494662873447,0.0007842806517146528,0.0007570324814878404,0.0007337558781728148,0.0007067324477247894,0.0006827560719102621,0.000658236094750464,0.0006394984084181488,0.0006169498083181679,0.0005998164997436106,0.0005816160701215267,0.0005660023307427764,0.0005475815269164741,0.0005313840811140835,0.0005147212068550289,0.0005013897898606956,0.00048698222963139415,0.0004753864777740091,0.00046140444464981556,0.000450251653091982,0.00043689910671673715,0.00042514034430496395,0.0004140427045058459,0.0004036839527543634,0.0003926407953258604,0.00038324875640682876,0.00037326241726987064,0.0003655299951788038,0.0003557642630767077,0.00034779799170792103,0.0003387185570318252,0.00033033592626452446,0.0003232805465813726,0.000315823417622596,0.00030876212986186147,0.00030181100009940565,0.000295131525490433,0.0002880748070310801,0.0002815041516441852,0.00027574592968448997,0.000269963638857007,0.0002637433644849807,0.00025860723690129817,0.0002535745734348893,0.00024795407080091536,0.00024269433924928308,0.00023728929227218032,0.00023314230202231556,0.00022821316088084131,0.0002236313303001225,0.000219642577576451,0.0002147792256437242,0.00021090987138450146,0.0002071973285637796,0.00020292768022045493,0.00019893776334356517,0.00019546494877431542,0.00019171260646544397,0.00018849126354325563,0.00018456180987413973,0.00018140663451049477,0.00017798853514250368,0.0001748369977576658,0.00017156486865133047,0.00016853226406965405,0.00016585635603405535,0.00016278596012853086,0.00016009330283850431,0.00015721024828962982,0.00015437635011039674,0.0001517993223387748,0.00014932648628018796,0.0001469205308239907,0.00014427155838347971,0.0001419328327756375,0.00013971305452287197,0.0001373180712107569,0.0001350841484963894,0.0001331176026724279,0.0001307228085352108,0.00012878398410975933,0.00012669613352045417,0.00012464617611840367,0.00012248681741766632,0.00012071082892362028,0.00011873715266119689,0.00011692089901771396,0.00011528771574376151,0.00011355876631569117,0.00011181000445503742,0.00011009965237462893,0.00010847447993000969,0.0001069661884685047,0.00010523170931264758,0.0001036586327245459,0.00010206021397607401,0.0001006217862595804,9.913562826113775e-05,9.768120071385056e-05,9.61918558459729e-05,9.487213537795469e-05,9.347176819574088e-05,9.218811464961618e-05,9.078742732526734e-05,8.969761256594211e-05,8.841098315315321e-05,8.708552923053503e-05,8.594182872911915e-05,8.469160093227401e-05,8.350840653292835e-05,8.228493970818818e-05,8.117310062516481e-05,8.007491123862565e-05,7.898965122876689e-05,7.795115379849449e-05,7.685679156566039e-05,7.597431249450892e-05,7.488970004487783e-05,7.382994226645678e-05,7.290027133421972e-05,7.191417535068467e-05,7.107620331225917e-05,7.001816993579268e-05,6.929925439180806e-05,6.834088708274066e-05,6.746684084646404e-05,6.655381730524823e-05,6.580253830179572e-05,6.484348705271259e-05,6.412804941646755e-05,6.337965169223025e-05,6.245238910196349e-05,6.165647937450558e-05,6.089087764848955e-05,6.0219295846764e-05,5.9472236898727715e-05,5.872541441931389e-05,5.798464917461388e-05,5.725397204514593e-05,5.648314254358411e-05,5.584856262430549e-05,5.5145694204838946e-05,5.4540421842830256e-05,5.383234019973315e-05
11,4.190473556518555,2.759716749191284,2.5281260013580322,2.3451030254364014,2.121220350265503,1.7978944778442383,1.4130034446716309,0.9866036176681519,0.6530790328979492,0.3675392270088196,0.1841592639684677,0.09857285022735596,0.05174523964524269,0.030935687944293022,0.021684948354959488,0.016394419595599174,0.012879973277449608,0.011043562553822994,0.009471198543906212,0.008093626238405704,0.007092833984643221,0.006362438667565584,0.005797784309834242,0.005250605288892984,0.004716815426945686,0.004370418842881918,0.004013643600046635,0.003709039418026805,0.0034282333217561245,0.0031972909346222878,0.002993455622345209,0.002795515349134803,0.0026195792015641928,0.002461268799379468,0.0023220316506922245,0.0021976903080940247,0.0020685524214059114,0.00196327012963593,0.0018529504304751754,0.0017669055378064513,0.0016894277650862932,0.001600997755303979,0.0015211330028250813,0.0014531029155477881,0.0014010294107720256,0.001325923833064735,0.0012687543639913201,0.0012162175262346864,0.0011650121305137873,0.001117427134886384,0.0010743942111730576,0.0010347155621275306,0.000998369650915265,0.0009566610096953809,0.0009202439105138183,0.000888384529389441,0.0008571528596803546,0.0008235124405473471,0.0007975929183885455,0.0007724923198111355,0.0007458999752998352,0.0007207744638435543,0.0006995713338255882,0.000678329961374402,0.0006541705224663019,0.0006355313234962523,0.0006148105603642762,0.0005998834385536611,0.0005809053545817733,0.0005651782848872244,0.0005476033547893167,0.000531580823007971,0.0005164943286217749,0.0005012436304241419,0.0004889385891146958,0.0004736873088404536,0.0004627991875167936,0.0004508915008045733,0.0004391452530398965,0.00042838521767407656,0.0004167318402323872,0.00040661662933416665,0.00039695537998341024,0.00038707361090928316,0.00037907570367679,0.00036946882028132677,0.00036047250614501536,0.00035202220897190273,0.00034299117396585643,0.00033597531728446484,0.00032826222013682127,0.00031994417076930404,0.0003129373653791845,0.0003069768426939845,0.00030051826615817845,0.000293834280455485,0.00028763042064383626,0.00028083848883397877,0.000274725811323151,0.0002689847897272557,0.00026397823239676654,0.00025779742281883955,0.0002527993929106742,0.00024750438751652837,0.00024244845553766936,0.00023787771351635456,0.0002327153051737696,0.00022863640333525836,0.00022401352180168033,0.00022005330538377166,0.0002158248971682042,0.00021113666298333555,0.0002073512296192348,0.000203394127311185,0.0001997566723730415,0.00019591409363783896,0.00019226879521738738,0.00018878697301261127,0.00018550940148998052,0.0001821079640649259,0.00017913576448336244,0.00017585080058779567,0.00017300707986578345,0.00016973262245301157,0.00016689767653588206,0.00016391996177844703,0.00016136383055709302,0.0001586018333910033,0.00015580806939397007,0.0001529302098788321,0.00015058924327604473,0.00014800441567786038,0.0001456831960240379,0.000143096040119417,0.00014108041068539023,0.0001385622308589518,0.00013634987408295274,0.00013424984354060143,0.00013220008986536413,0.00013009733811486512,0.00012781766417901963,0.00012583484931383282,0.00012391565542202443,0.0001219434998347424,0.00012013384548481554,0.00011832819291157648,0.0001166478032246232,0.00011498216917971149,0.00011309480760246515,0.00011152348452014849,0.00010968025890178978,0.00010813704284373671,0.00010659256804501638,0.00010505193495191634,0.00010365572961745784,0.00010204075078945607,0.00010061117791337892,9.923648030962795e-05,9.787346789380535e-05,9.62374615482986e-05,9.510106610832736e-05,9.375457011628896e-05,9.248049900634214e-05,9.120503818849102e-05,8.992497168947011e-05,8.864940900821239e-05,8.744074148125947e-05,8.626135968370363e-05,8.513512148056179e-05,8.387735579162836e-05,8.269666432170197e-05,8.180907025234774e-05,8.058729872573167e-05,7.941271178424358e-05,7.840104808565229e-05,7.747454947093502e-05,7.64205542509444e-05,7.537219789810479e-05,7.445678056683391e-05,7.353076216531917e-05,7.26215512258932e-05,7.158760126912966e-05,7.06946084392257e-05,6.981212936807424e-05,6.892160308780149e-05,6.796694651711732e-05,6.718662189086899e-05,6.627467519138008e-05,6.558802851941437e-05,6.471083906944841e-05,6.388795736711472e-05,6.318517989711836e-05,6.236701301531866e-05,6.160687189549208e-05,6.083819243940525e-05,6.001398287480697e-05,5.939041875535622e-05,5.8654361055232584e-05,5.801332008559257e-05,5.724663787987083e-05
12,3.8757410049438477,2.684001922607422,2.482473134994507,2.265838861465454,1.981890320777893,1.6084723472595215,1.322102427482605,0.8546475172042847,0.568915069103241,0.3042863607406616,0.15504486858844757,0.07571253180503845,0.04156173765659332,0.02588171698153019,0.01789054274559021,0.013838431797921658,0.010887274518609047,0.009395793080329895,0.007977793924510479,0.00697715487331152,0.006244591437280178,0.005541609134525061,0.0049969893880188465,0.004572500940412283,0.00415340019389987,0.003806586842983961,0.003492197021842003,0.0032635140232741833,0.0030207515228539705,0.002801164286211133,0.002593846060335636,0.002429351443424821,0.0022924672812223434,0.0021614693105220795,0.002026936039328575,0.001905058859847486,0.0018074519466608763,0.0017107533058151603,0.0016144581604748964,0.0015331839676946402,0.0014573767548426986,0.0013875386212021112,0.0013219646643847227,0.0012615179875865579,0.0012065517948940396,0.0011554573429748416,0.0011035397183150053,0.0010570415761321783,0.001014095381833613,0.0009705247939564288,0.0009359642863273621,0.0009004810708574951,0.000864934001583606,0.0008320304332301021,0.0008017205400392413,0.0007722616428509355,0.0007450937991961837,0.0007197076920419931,0.0006979668978601694,0.0006711145979352295,0.0006472748937085271,0.0006275581545196474,0.0006058099097572267,0.0005879343952983618,0.0005701310001313686,0.0005519161350093782,0.0005354981985874474,0.0005213196272961795,0.0005036305519752204,0.0004897624021396041,0.000475201231893152,0.0004628273018170148,0.00044760628952644765,0.0004366282082628459,0.0004253640363458544,0.00041281821904703975,0.0004027365939691663,0.0003912784450221807,0.00038116180803626776,0.00037106918171048164,0.0003610175917856395,0.00035357262822799385,0.0003434809623286128,0.00033610910759307444,0.0003273617767263204,0.0003195767349097878,0.0003120095352642238,0.0003048772632610053,0.00029741821344941854,0.00029069979791529477,0.0002835430495906621,0.00027802016120404005,0.0002716712770052254,0.0002651556278578937,0.00025923611246980727,0.000253521982813254,0.00024822805426083505,0.0002425055718049407,0.00023733399575576186,0.00023268215591087937,0.00022762997832614928,0.00022285901650320739,0.00021830970945302397,0.00021439541887957603,0.00020972214406356215,0.0002056609810097143,0.00020147295435890555,0.00019771564984694123,0.00019370515656191856,0.00019004131900146604,0.0001859321928350255,0.00018259102944284678,0.00017920532263815403,0.00017579783161636442,0.0001723972090985626,0.00016909472469706088,0.0001664187730057165,0.00016313591913785785,0.0001601232070242986,0.0001572056207805872,0.00015440135030075908,0.0001516836491646245,0.0001490219437982887,0.0001462107611587271,0.00014365390234161168,0.00014126772293820977,0.00013909679546486586,0.00013644546561408788,0.00013425626093521714,0.00013222127745393664,0.0001298322167713195,0.00012777347001247108,0.0001255910174222663,0.0001233023649547249,0.00012154653813922778,0.00011970431660301983,0.0001176828081952408,0.00011584785534068942,0.00011390023428248242,0.00011222364264540374,0.00011047701991628855,0.00010856849257834256,0.00010700002167141065,0.00010523781384108588,0.0001036049725371413,0.0001020931449602358,0.00010043530346592888,9.896822302835062e-05,9.757118095876649e-05,9.61738041951321e-05,9.465394396102056e-05,9.330051398137584e-05,9.179841435980052e-05,9.050394146470353e-05,8.921026164898649e-05,8.795597386779264e-05,8.672777039464563e-05,8.55327452882193e-05,8.431473543168977e-05,8.293067367048934e-05,8.184766193153337e-05,8.06318421382457e-05,7.957612979225814e-05,7.850393740227446e-05,7.729948265478015e-05,7.631842890987173e-05,7.534714677603915e-05,7.416998414555565e-05,7.326972263399512e-05,7.2274669946637e-05,7.140617526602e-05,7.033606379991397e-05,6.936568388482556e-05,6.852856313344091e-05,6.754940113751218e-05,6.66987180011347e-05,6.582524656550959e-05,6.508961814688519e-05,6.415754614863545e-05,6.331594340736046e-05,6.240838411031291e-05,6.168649269966409e-05,6.089100133976899e-05,6.012845551595092e-05,5.937865353189409e-05,5.864615741302259e-05,5.7884444686351344e-05,5.7165852922480553e-05,5.652449181070551e-05,5.575872273766436e-05,5.5096246796892956e-05,5.439933738671243e-05,5.3701933211414143e-05,5.3065534302731976e-05,5.23832713952288e-05,5.1828494179062545e-05,5.1126200560247526e-05,5.059526665718295e-05,4.99033230880741e-05,4.934200114803389e-05
13,4.16191291809082,2.7611231803894043,2.5620837211608887,2.3872530460357666,2.1552345752716064,1.8727667331695557,1.4997724294662476,1.1052896976470947,0.6876477003097534,0.3756985068321228,0.19134747982025146,0.09719432145357132,0.05435432866215706,0.035417649894952774,0.021779175847768784,0.015412390232086182,0.010920854285359383,0.008912447839975357,0.007579503580927849,0.006574742496013641,0.005887661594897509,0.005201485939323902,0.004703209735453129,0.004313909448683262,0.00389218726195395,0.0035702611785382032,0.003272829344496131,0.0030267268884927034,0.0028060919139534235,0.0026407577097415924,0.002477579517289996,0.0023059931118041277,0.0021728898864239454,0.0020378795452415943,0.0019069608533754945,0.001815237570554018,0.001709194853901863,0.0016132236924022436,0.0015390397747978568,0.0014609439531341195,0.0013843312626704574,0.0013264943845570087,0.0012633705046027899,0.0012111890828236938,0.0011561920400708914,0.0011106209130957723,0.001077277585864067,0.001016363617964089,0.0009710867307148874,0.0009306280990131199,0.000890203460585326,0.0008575280662626028,0.0008281742339022458,0.0007951654260978103,0.0007681727292947471,0.0007452459540218115,0.0007171955658122897,0.000691477267537266,0.0006681517697870731,0.0006446582265198231,0.0006246010307222605,0.0006043032626621425,0.0005854074261151254,0.0005660175811499357,0.00054865115089342,0.0005311390850692987,0.0005152559606358409,0.0005007784347981215,0.00048429970047436655,0.0004708523629233241,0.000456906360341236,0.00044508904102258384,0.0004325742193032056,0.0004211577761452645,0.0004102164530195296,0.0003987980308011174,0.00038781098555773497,0.00037754050572402775,0.000368709908798337,0.0003579671320039779,0.0003499606391415,0.00034032270195893943,0.0003319831448607147,0.00032356075826101005,0.000315941491862759,0.0003079805464949459,0.0003004747850354761,0.0002937053213827312,0.0002864831767510623,0.00028084657969884574,0.00027413558564148843,0.00026821772917173803,0.0002625483903102577,0.00025636531063355505,0.0002504692238289863,0.00024525594199076295,0.0002396626368863508,0.00023497419897466898,0.00022965336393099278,0.00022555093164555728,0.00022132915910333395,0.00021622961503453553,0.00021133747941348702,0.00020727227092720568,0.00020282960031181574,0.00019874368445016444,0.000195251326658763,0.00019131466979160905,0.00018760914099402726,0.00018415505473967642,0.00018020992865785956,0.00017725357611197978,0.00017363420920446515,0.00016998506907839328,0.00016718324332032353,0.00016409697127528489,0.00016133383905980736,0.00015807751333341002,0.000155333211296238,0.00015241811343003064,0.0001499045902164653,0.000146933103678748,0.00014458240184467286,0.0001421775814378634,0.0001394387800246477,0.00013713778753299266,0.00013481330825015903,0.00013251327618490905,0.00013027552631683648,0.00012788697495125234,0.00012588378740474582,0.0001238243276020512,0.00012175469601061195,0.00012004491145489737,0.00011804096720879897,0.0001162352054961957,0.00011440831440268084,0.00011236288992222399,0.0001105043338611722,0.00010886494419537485,0.00010714397649280727,0.00010544037650106475,0.00010374127305112779,0.00010230264160782099,0.0001008368271868676,9.926965140039101e-05,9.777764353202656e-05,9.616155148250982e-05,9.468263306189328e-05,9.33564588194713e-05,9.208125266013667e-05,9.070069791050628e-05,8.94755867193453e-05,8.817158959573135e-05,8.678265294292942e-05,8.546547178411856e-05,8.44083697302267e-05,8.327962859766558e-05,8.191863889805973e-05,8.0761885328684e-05,7.961256051203236e-05,7.850716792745516e-05,7.73421925259754e-05,7.637879753019661e-05,7.545376138295978e-05,7.422776252496988e-05,7.324357284232974e-05,7.234959048219025e-05,7.127342541934922e-05,7.036950410110876e-05,6.944496999494731e-05,6.84169790474698e-05,6.756239599781111e-05,6.658696656813845e-05,6.575323641300201e-05,6.48357454338111e-05,6.404679879778996e-05,6.315288919722661e-05,6.238239438971505e-05,6.160173506941646e-05,6.0719648899976164e-05,5.9987894928781316e-05,5.921699630562216e-05,5.845263149240054e-05,5.778377817478031e-05,5.7034907513298094e-05,5.625025733024813e-05,5.551419235416688e-05,5.4909000027691945e-05,5.426557254395448e-05,5.348729246179573e-05,5.290213448461145e-05,5.2183451771270484e-05,5.1601604354800656e-05,5.095627420814708e-05,5.0282706069992855e-05,4.9730391765479e-05,4.9085807404480875e-05,4.856521263718605e-05,4.8013735067797825e-05
14,4.215615272521973,2.8676791191101074,2.5863990783691406,2.434439182281494,2.233928918838501,1.9646317958831787,1.634250521659851,1.2620431184768677,0.8642417192459106,0.5519282817840576,0.3213215172290802,0.15974688529968262,0.07679855823516846,0.04061215743422508,0.025462202727794647,0.018721384927630424,0.013748342171311378,0.010922811925411224,0.009022065438330173,0.007808024995028973,0.006827882956713438,0.006071435287594795,0.005482682958245277,0.005031233187764883,0.004522514529526234,0.004158812575042248,0.0038321474567055702,0.0035105457063764334,0.003227654844522476,0.003025033511221409,0.002811742713674903,0.002629060996696353,0.002460465067997575,0.002299244049936533,0.002164816949516535,0.0020347577519714832,0.0019083712249994278,0.0018109976081177592,0.0017488927114754915,0.0016358083812519908,0.001558728632517159,0.0014781764475628734,0.001403745380230248,0.0013473433209583163,0.001287738443352282,0.0012211664579808712,0.0011710639810189605,0.001124053611420095,0.0010726578766480088,0.0010371707612648606,0.00098981277551502,0.0009510564268566668,0.0009116977453231812,0.0008757106843404472,0.000845411152113229,0.000815466046333313,0.0007857856689952314,0.0007617275696247816,0.0007349291699938476,0.0007109155412763357,0.0006857321714051068,0.0006652275915257633,0.0006428497144952416,0.0006209079874679446,0.000602436950430274,0.0005822768434882164,0.0005665392382070422,0.0005490825278684497,0.0005333782755769789,0.0005169513751752675,0.0005025739665143192,0.0004891371354460716,0.00047423256910406053,0.0004621573898475617,0.00044916910701431334,0.00043718941742554307,0.000425895705120638,0.0004137795476708561,0.0004029737028758973,0.00039457285311073065,0.0003828341723419726,0.00037345022428780794,0.00036454031942412257,0.0003554646682459861,0.0003468095965217799,0.00033887175959534943,0.0003307748993393034,0.00032239581923931837,0.00031520798802375793,0.00030778974178247154,0.00030025647720322013,0.0002938923717010766,0.00028778394334949553,0.00028087690589018166,0.0002747332910075784,0.0002688483218662441,0.0002632661780808121,0.00025792288943193853,0.0002520662674214691,0.0002473923086654395,0.00024215172743424773,0.00023641306324861944,0.00023255537962540984,0.00022732099751010537,0.000222743081394583,0.00021859056141693145,0.00021426922467071563,0.00020980020053684711,0.00020596929243765771,0.00020171928917989135,0.0001978973305085674,0.00019469024846330285,0.0001911367435241118,0.00018746817659121007,0.0001836555456975475,0.00018048541096504778,0.0001775256241671741,0.00017392271547578275,0.00017091655172407627,0.00016783716273494065,0.00016478091129101813,0.00016176165081560612,0.000159110248205252,0.00015618267934769392,0.00015371511108241975,0.00015090238593984395,0.00014832949091214687,0.0001459779596189037,0.00014363274385686964,0.00014113361248746514,0.00013873056741431355,0.00013650146138388664,0.00013444687647279352,0.00013195874635130167,0.00012996424629818648,0.00012777453230228275,0.000125632926938124,0.00012370133481454104,0.00012170017726020887,0.00011977911344729364,0.00011793955491157249,0.00011602172162383795,0.00011427971912780777,0.00011269081733189523,0.00011076028749812394,0.00010918323823716491,0.00010750024375738576,0.00010605763964122161,0.00010439218749525025,0.00010284109885105863,0.00010129638394573703,9.98140822048299e-05,9.834131196839735e-05,9.692177991382778e-05,9.550644608680159e-05,9.42270053201355e-05,9.279859659727663e-05,9.160597255686298e-05,9.022555605042726e-05,8.903403795557097e-05,8.775169408181682e-05,8.653185068396851e-05,8.537410030839965e-05,8.41084765852429e-05,8.30358694656752e-05,8.195765985874459e-05,8.071644697338343e-05,7.96390522737056e-05,7.851197733543813e-05,7.74392974562943e-05,7.64453288866207e-05,7.547668064944446e-05,7.449207623722032e-05,7.343635661527514e-05,7.250522321555763e-05,7.154791819630191e-05,7.06363789504394e-05,6.976533040869981e-05,6.881017907289788e-05,6.789566396037117e-05,6.70242661726661e-05,6.628565461141989e-05,6.54267641948536e-05,6.455513357650489e-05,6.37684206594713e-05,6.291714089456946e-05,6.217139889486134e-05,6.134943396318704e-05,6.0626291087828577e-05,5.987922486383468e-05,5.912296546739526e-05,5.8393696235725656e-05,5.766071626567282e-05,5.693408093065955e-05,5.625945414067246e-05,5.565690662479028e-05,5.506181332748383e-05,5.4251013352768496e-05,5.358026101021096e-05,5.2974242862546816e-05
15,4.846316337585449,2.9734182357788086,2.6319832801818848,2.5169098377227783,2.3686776161193848,2.153336524963379,1.9063512086868286,1.5799388885498047,1.165131688117981,0.8028636574745178,0.502289354801178,0.263521671295166,0.15392139554023743,0.09554106742143631,0.05114144831895828,0.03337331861257553,0.02119348756968975,0.015125883743166924,0.012106630951166153,0.010009508579969406,0.008524084463715553,0.007379376795142889,0.006639993749558926,0.005863912403583527,0.005263316910713911,0.004850226454436779,0.004408719018101692,0.0040419334545731544,0.0037257568910717964,0.003470886964350939,0.0032163355499505997,0.0029999713879078627,0.0028076171875,0.002629705471917987,0.0024768810253590345,0.0023096585646271706,0.0021687590051442385,0.002056207275018096,0.0019428667146712542,0.0018439973937347531,0.0017589385388419032,0.001667467295192182,0.00158869125880301,0.0015087724896147847,0.0014439228689298034,0.0013780375011265278,0.0013172001345083117,0.0012581497430801392,0.001211020746268332,0.0011592747177928686,0.0011117183603346348,0.0010654961224645376,0.0010278774425387383,0.000989445368759334,0.0009518323931843042,0.0009141708142124116,0.0008805590332485735,0.0008506480953656137,0.0008232830441556871,0.0008030799799598753,0.0007661390700377524,0.0007394452695734799,0.0007155825151130557,0.0006922695902176201,0.0006700670346617699,0.0006495580310001969,0.0006304284324869514,0.0006132950657047331,0.000593214703258127,0.0005747294635511935,0.0005586275365203619,0.0005418037180788815,0.0005265777581371367,0.0005123011651448905,0.0004982019891031086,0.0004844479262828827,0.00047115146298892796,0.0004582765104714781,0.0004477417387533933,0.0004358526202850044,0.0004241576243657619,0.0004132177564315498,0.00040393255767412484,0.0003946963988710195,0.00038347914232872427,0.0003748999151866883,0.0003651566512417048,0.0003566040250007063,0.00034783940645866096,0.00034009868977591395,0.00033163142506964505,0.0003241506638005376,0.00031779633718542755,0.00030954499379731715,0.0003031868545804173,0.0002960548154078424,0.00028977205511182547,0.000283613771898672,0.00027704890817403793,0.0002710427506826818,0.00026568345492705703,0.0002602697059046477,0.0002544154995121062,0.0002495548687875271,0.00024507229682058096,0.00023977298405952752,0.0002346041437704116,0.00023000291548669338,0.00022597624047193676,0.00022121587244328111,0.00021676340838894248,0.00021266566182021052,0.0002088431065203622,0.0002049239701591432,0.0002012654731515795,0.0001972512254724279,0.000193497005966492,0.00019022460037376732,0.00018670949793886393,0.00018316885689273477,0.0001798092562239617,0.00017663855396676809,0.00017363826918881387,0.00017069590103346854,0.00016759209393057972,0.00016480889462400228,0.00016182051331270486,0.00015921458543743938,0.00015687779523432255,0.00015370798064395785,0.00015147944213822484,0.00014897756045684218,0.00014666985953226686,0.00014404401008505374,0.0001414129073964432,0.00013924256199970841,0.0001371672551613301,0.00013481409405358136,0.00013296928955242038,0.00013057202158961445,0.00012876516848336905,0.00012652069563046098,0.0001248162006959319,0.00012271860032342374,0.00012084087211405858,0.00011888510925928131,0.00011725028161890805,0.000115528870082926,0.00011376183829270303,0.00011208067735424265,0.0001103479226003401,0.00010890680277952924,0.00010720764839788899,0.00010543616372160614,0.00010404375643702224,0.00010242249845759943,0.00010112530435435474,9.951813262887299e-05,9.809524635784328e-05,9.673295426182449e-05,9.537218284094706e-05,9.400044655194506e-05,9.270247392123565e-05,9.152286656899378e-05,9.019403660204262e-05,8.89064758666791e-05,8.77292623044923e-05,8.65269685164094e-05,8.542035357095301e-05,8.430373418377712e-05,8.302917558467016e-05,8.198231080314144e-05,8.074003562796861e-05,7.97675020294264e-05,7.871129491832107e-05,7.761544111417606e-05,7.664589065825567e-05,7.558496145065874e-05,7.46407313272357e-05,7.371075480477884e-05,7.277033000718802e-05,7.179366366472095e-05,7.089322753017768e-05,7.01267272233963e-05,6.916213897056878e-05,6.823380681453273e-05,6.738426600350067e-05,6.653687887592241e-05,6.569347169715911e-05,6.493299588328227e-05,6.409397610696033e-05,6.329956522677094e-05,6.255830521695316e-05,6.174459849717095e-05,6.098618541727774e-05,6.017339910613373e-05,5.949620754108764e-05,5.8812300267163664e-05,5.8111669204663485e-05,5.741856512031518e-05
16,3.689347982406616,2.672201633453369,2.453446626663208,2.1908981800079346,1.83664870262146,1.4171839952468872,1.0235252380371094,0.6546735763549805,0.36595645546913147,0.19042666256427765,0.10555284470319748,0.04750332981348038,0.028701134026050568,0.019116977229714394,0.013488956727087498,0.010779786854982376,0.008902964182198048,0.00754556804895401,0.00666608614847064,0.005932466126978397,0.005306902341544628,0.004799678456038237,0.004437105730175972,0.004000893794000149,0.0036931619979441166,0.0034232675097882748,0.003156161867082119,0.0029217281844466925,0.0027257290203124285,0.0025509053375571966,0.0023812190629541874,0.0022447819355875254,0.002125645289197564,0.00200193771161139,0.0019312265794724226,0.0017935963114723563,0.0016951995203271508,0.0016063397051766515,0.001526095438748598,0.001456894096918404,0.0013872194103896618,0.001315475907176733,0.0012537508737295866,0.0011965020094066858,0.0011443357216194272,0.0010990086011588573,0.0010558987269178033,0.001009605242870748,0.0009691535378806293,0.0009326341096311808,0.000897973426617682,0.0008612275123596191,0.0008297924650833011,0.000801943417172879,0.0007716416730545461,0.0007468624389730394,0.0007219783728942275,0.0006952444673515856,0.000674358569085598,0.0006500544841401279,0.0006294663180597126,0.0006104740896262228,0.0005887924344278872,0.0005689210374839604,0.0005527099128812551,0.0005352766020223498,0.0005195801495574415,0.0005054258508607745,0.0004911151481792331,0.0004791415703948587,0.00046212159213609993,0.0004520611255429685,0.0004380086320452392,0.0004261604626663029,0.00041490295552648604,0.00040458462899550796,0.0003936431894544512,0.0003837142139673233,0.00037413620157167315,0.00036540479050017893,0.0003555788716766983,0.0003469543007668108,0.00033871305640786886,0.0003305930003989488,0.0003223172971047461,0.0003147264651488513,0.0003076898865401745,0.0003001264703925699,0.00029327705851756036,0.0002868770679924637,0.000279715663054958,0.00027427097666077316,0.00026826278190128505,0.00026217938284389675,0.00025659441598691046,0.00025093695148825645,0.0002464317949488759,0.0002404713595751673,0.00023596601386088878,0.0002306434907950461,0.00022631742467638105,0.00022116214677225798,0.0002170212537748739,0.00021253316663205624,0.00020822457736358047,0.00020453818433452398,0.00020033014880027622,0.00019632530165836215,0.00019321792933624238,0.00018903586897067726,0.00018555136921349913,0.00018202708452008665,0.00017863638640847057,0.00017547552124597132,0.0001721116277622059,0.00016892484563868493,0.00016596839122939855,0.0001628885220270604,0.0001599633105797693,0.00015709093713667244,0.00015439162962138653,0.00015175029693637043,0.00014903362898621708,0.00014645203191321343,0.00014401673979591578,0.00014150646165944636,0.0001393354032188654,0.00013684392615687102,0.0001344139309367165,0.00013239384861662984,0.00013001071056351066,0.00012810408952645957,0.0001259932032553479,0.0001240877027157694,0.00012213640729896724,0.00012028690980514511,0.00011804239329649135,0.00011603614257182926,0.00011433163308538496,0.00011250701936660334,0.00011073592759203166,0.00010921377543127164,0.00010752530943136662,0.00010585596464807168,0.00010427322558825836,0.00010261921852361411,0.00010115174518432468,9.946260252036154e-05,9.796565427677706e-05,9.666203550295904e-05,9.522054460830986e-05,9.373693319503218e-05,9.236476762453094e-05,9.10734961507842e-05,8.980424172477797e-05,8.853928738972172e-05,8.718649769434705e-05,8.605190669186413e-05,8.499716204823926e-05,8.36239560157992e-05,8.242040348704904e-05,8.131156209856272e-05,8.017919753910974e-05,7.902117067715153e-05,7.801289029885083e-05,7.68499739933759e-05,7.585036655655131e-05,7.489108247682452e-05,7.389140228042379e-05,7.284560706466436e-05,7.183945854194462e-05,7.092758460203186e-05,7.00143282301724e-05,6.917049904586747e-05,6.823272997280583e-05,6.734146154485643e-05,6.642727385042235e-05,6.554272840730846e-05,6.474310794146731e-05,6.390440103132278e-05,6.303028931142762e-05,6.22825464233756e-05,6.14124073763378e-05,6.071549069019966e-05,5.9927213442279026e-05,5.921499541727826e-05,5.843498001922853e-05,5.7714722061064094e-05,5.695450090570375e-05,5.632951433653943e-05,5.563203012570739e-05,5.4897631343919784e-05,5.422489266493358e-05,5.361994408303872e-05,5.294804213917814e-05,5.230526585364714e-05,5.170917575014755e-05,5.106077514938079e-05,5.0448637921363115e-05,4.9868183850776404e-05
17,4.590083599090576,2.8142971992492676,2.58072566986084,2.4503674507141113,2.2694170475006104,2.037221670150757,1.710345983505249,1.3487043380737305,0.9898988604545593,0.6418998837471008,0.3878386318683624,0.21754856407642365,0.12052769958972931,0.06816813349723816,0.04099518805742264,0.028715740889310837,0.020420219749212265,0.014938411302864552,0.011655597016215324,0.009738974273204803,0.008662955835461617,0.007554002106189728,0.00679346127435565,0.00614630663767457,0.005587452091276646,0.005054072476923466,0.004615272395312786,0.0042106593027710915,0.003873762907460332,0.0035868200939148664,0.003336774418130517,0.003131437348201871,0.0029099213425070047,0.0027304706163704395,0.0025435115676373243,0.002403771039098501,0.0022481526248157024,0.0021343303378671408,0.0020079005043953657,0.0019033036660403013,0.0018210611306130886,0.0017155318055301905,0.0016312772640958428,0.0015445315511897206,0.0014659111620858312,0.0014087023446336389,0.001336508197709918,0.001272384193725884,0.0012205332750454545,0.0011702344054356217,0.001116513041779399,0.0010734440293163061,0.001030375948175788,0.0009889568900689483,0.0009519481100142002,0.0009155200677923858,0.00088543223682791,0.0008525661542080343,0.0008250379469245672,0.0007940680370666087,0.0007673660875298083,0.0007404478965327144,0.000716674025170505,0.0006963677005842328,0.0006703074323013425,0.0006522390758618712,0.0006291928002610803,0.0006098573794588447,0.000588742783293128,0.0005726319504901767,0.0005560301942750812,0.0005388114368543029,0.0005235187127254903,0.0005086730234324932,0.0004936295445077121,0.00048041404807008803,0.00046966911759227514,0.0004575048806145787,0.00044242822332307696,0.00043092560372315347,0.0004201049741823226,0.00040838003042154014,0.00039752040174789727,0.0003880160511471331,0.00037731288466602564,0.00036851060576736927,0.000359042314812541,0.0003507967630866915,0.0003422991721890867,0.00033341956441290677,0.0003265803388785571,0.0003192434087395668,0.0003106426156591624,0.0003036634880118072,0.00029688040376640856,0.00029026358970440924,0.00028392739477567375,0.0002776094479486346,0.00027182771009393036,0.0002667079388629645,0.00025986041873693466,0.00025503261713311076,0.0002486446173861623,0.00024408577883150429,0.0002386305422987789,0.00023382666404359043,0.00022912702115718275,0.00022466687369160354,0.00022021780023351312,0.00021553668193519115,0.00021117633150424808,0.00020726554794237018,0.00020313469576649368,0.0001998718798859045,0.00019593577599152923,0.00019171353778801858,0.00018799793906509876,0.00018460422870703042,0.00018118675507139415,0.00017761223716661334,0.0001745196495903656,0.00017139104602392763,0.00016838622104842216,0.00016546777624171227,0.0001625347213121131,0.00015949038788676262,0.0001567113067721948,0.00015382665151264518,0.00015120506577659398,0.00014880564413033426,0.0001457982143620029,0.00014388228009920567,0.00014117738464847207,0.00013896683230996132,0.00013638737436849624,0.0001341913448413834,0.00013208376185502857,0.00013004524225834757,0.0001278353011002764,0.0001256521645700559,0.00012349689495749772,0.00012164521467639133,0.00011955625814152882,0.00011787876428570598,0.00011606718180701137,0.00011407044075895101,0.00011225785419810563,0.00011052122863475233,0.00010885766823776066,0.00010711964569054544,0.00010547141573624685,0.0001038915288518183,0.00010238774120807648,0.00010067386756418273,9.944236080627888e-05,9.786456939764321e-05,9.631838474888355e-05,9.49834065977484e-05,9.362426499137655e-05,9.211234282702208e-05,9.075411799130961e-05,8.964717562776059e-05,8.833793981466442e-05,8.702331979293376e-05,8.571143553126603e-05,8.454374619759619e-05,8.320840424858034e-05,8.176566188922152e-05,8.037278894335032e-05,7.921037467895076e-05,7.785202615195885e-05,7.666362944291905e-05,7.533931784564629e-05,7.417764572892338e-05,7.309095963137224e-05,7.202480628620833e-05,7.090659346431494e-05,6.997702439548448e-05,6.898074207128957e-05,6.793187640141696e-05,6.674064934486523e-05,6.575328734470531e-05,6.494951958302408e-05,6.394346564775333e-05,6.314094207482412e-05,6.218454655027017e-05,6.135843432275578e-05,6.0503592976601794e-05,5.969387711957097e-05,5.8962606999557465e-05,5.819675061502494e-05,5.7360215578228235e-05,5.662689000018872e-05,5.5895048717502505e-05,5.515461089089513e-05,5.446655995910987e-05,5.369755672290921e-05,5.301826968207024e-05,5.2391638746485114e-05,5.164300455362536e-05
18,4.400463581085205,2.838794231414795,2.593898057937622,2.4501755237579346,2.2696802616119385,2.023232936859131,1.6937967538833618,1.3753182888031006,0.9773296117782593,0.6225212216377258,0.3527684807777405,0.18322664499282837,0.08904504776000977,0.04967791214585304,0.0298190638422966,0.020639488473534584,0.01510979700833559,0.01202399842441082,0.01016016025096178,0.008726980537176132,0.00757309515029192,0.006689990404993296,0.006044282577931881,0.005334413144737482,0.004833236802369356,0.004373603500425816,0.004025480709969997,0.0037363783922046423,0.003447241149842739,0.003182402579113841,0.002964063547551632,0.0027801357209682465,0.0025799893774092197,0.0024128775112330914,0.002268747193738818,0.0021406852174550295,0.002028818940743804,0.001903967116959393,0.0017955225193873048,0.0017057721270248294,0.0016340368892997503,0.0015399906551465392,0.0014762129867449403,0.0014036356005817652,0.0013363398611545563,0.0012723924592137337,0.0012205020757392049,0.001166056958027184,0.001117177540436387,0.0010725612519308925,0.0010305375326424837,0.0009869416244328022,0.0009510960662737489,0.0009173029102385044,0.0008860366069711745,0.0008498342358507216,0.0008159264107234776,0.0007880670600570738,0.0007604213897138834,0.0007342504104599357,0.0007144971168600023,0.0006848320481367409,0.0006655659526586533,0.0006417149561457336,0.0006224228418432176,0.0006034075049683452,0.0005855723284184933,0.0005670440732501447,0.0005496543599292636,0.0005361363873817027,0.0005197407444939017,0.0005037423688918352,0.0004893921432085335,0.00047500155051238835,0.00046215346083045006,0.0004498825583141297,0.00043907566578127444,0.00042711765854619443,0.0004162403056398034,0.00040537180029787123,0.0003942905750591308,0.0003852270601782948,0.00037439019070006907,0.00036590563831850886,0.00035597302485257387,0.0003474391996860504,0.00033974499092437327,0.0003323052660562098,0.00032357548479922116,0.00031628209399059415,0.0003091020626015961,0.0003022465098183602,0.00029512785840779543,0.00028820204897783697,0.00028245034627616405,0.00027595844585448503,0.00027028401382267475,0.00026472844183444977,0.0002584570902399719,0.00025318656116724014,0.00024836865486577153,0.0002426498249405995,0.00023790478007867932,0.0002330807183170691,0.00022806372726336122,0.00022394130064640194,0.00021958048455417156,0.00021515511616598815,0.00021093054965604097,0.00020698776643257588,0.00020299918833188713,0.0001987369469134137,0.00019509026606101543,0.00019169114239048213,0.00018781973631121218,0.00018454957171343267,0.00018090990488417447,0.0001775233104126528,0.00017447903519496322,0.00017161287541966885,0.00016810328816063702,0.00016538816271349788,0.00016235708608292043,0.00015932634414639324,0.00015676565817557275,0.00015380610420834273,0.00015134514251258224,0.00014884192205499858,0.00014633635873906314,0.00014369901327881962,0.00014144842862151563,0.00013899679470341653,0.000136762042529881,0.00013432542618829757,0.00013231465709395707,0.0001301141019212082,0.00012817779497709125,0.00012589168909471482,0.0001240528654307127,0.00012208276893943548,0.0001201222839881666,0.00011819679639302194,0.00011645354970823973,0.0001147705625044182,0.00011275016731815413,0.0001111401870730333,0.00010949463467113674,0.00010766687773866579,0.00010626688890624791,0.0001044304808601737,0.00010287968325428665,0.0001012893917504698,9.996684093493968e-05,9.838970436248928e-05,9.702335228212178e-05,9.56821531872265e-05,9.418706031283364e-05,9.284599218517542e-05,9.152408892987296e-05,9.022454469231889e-05,8.899212843971327e-05,8.770258136792108e-05,8.648697985336185e-05,8.521955169271678e-05,8.407567656831816e-05,8.276419976027682e-05,8.174763934221119e-05,8.062746928771958e-05,7.951720908749849e-05,7.83942814450711e-05,7.748440111754462e-05,7.628888852195814e-05,7.533853931818157e-05,7.432140409946442e-05,7.328058563871309e-05,7.234993972815573e-05,7.138840737752616e-05,7.048848056001589e-05,6.953554839128628e-05,6.863437010906637e-05,6.782896525692195e-05,6.69027867843397e-05,6.604430382139981e-05,6.514643609989434e-05,6.442487210733816e-05,6.355621007969603e-05,6.272148311836645e-05,6.201151700224727e-05,6.113730341894552e-05,6.037881757947616e-05,5.966876051388681e-05,5.8909019571729004e-05,5.8165933296550065e-05,5.7442048273514956e-05,5.673836130881682e-05,5.6056927860481665e-05,5.539743506233208e-05,5.464697096613236e-05,5.405899719335139e-05,5.339173003449105e-05
19,4.470062732696533,2.8000411987304688,2.5872702598571777,2.430462121963501,2.236255168914795,1.9612294435501099,1.6471469402313232,1.226158857345581,0.824835479259491,0.5569693446159363,0.2940312623977661,0.162586510181427,0.09015382826328278,0.046946797519922256,0.02658403106033802,0.017716817557811737,0.013242516666650772,0.01062027458101511,0.008946718648076057,0.007732386235147715,0.0068211681209504604,0.00607194984331727,0.005445151589810848,0.004958472214639187,0.004534915555268526,0.004177326336503029,0.0037823631428182125,0.0034852002281695604,0.003241622354835272,0.0030154618434607983,0.0028111219871789217,0.002629583002999425,0.002457333030179143,0.002298028441146016,0.0021609854884445667,0.002041491214185953,0.001926894998177886,0.001840209006331861,0.0017318828031420708,0.0016412452096119523,0.001563290716148913,0.0014865158591419458,0.0014214421389624476,0.0013505300739780068,0.0012944287154823542,0.0012324247509241104,0.0011869730660691857,0.0011342838406562805,0.001086893491446972,0.0010364948539063334,0.001000450924038887,0.0009594078874215484,0.0009211204014718533,0.0008881507674232125,0.0008531675557605922,0.0008239434682764113,0.0007984371623024344,0.0007665830198675394,0.000740548362955451,0.0007151804747991264,0.0006913777906447649,0.0006715129129588604,0.0006461102748289704,0.000627168279606849,0.0006063392502255738,0.0005874915514141321,0.0005692330887541175,0.0005526373279280961,0.0005362214869819582,0.0005205943016335368,0.0005064923316240311,0.0004916084581054747,0.0004776576824951917,0.0004648132889997214,0.000453309272415936,0.00044038990745320916,0.0004283537855371833,0.0004167748847976327,0.0004052686272189021,0.00039470221963711083,0.0003838296979665756,0.00037508958484977484,0.00036621192703023553,0.0003565330116543919,0.0003478556754998863,0.0003392510989215225,0.000331357674440369,0.0003233891329728067,0.00031635479535907507,0.0003083783376496285,0.000301652675261721,0.0002950064081232995,0.00028787844348698854,0.0002811347949318588,0.0002753122244030237,0.0002696145384106785,0.0002635366399772465,0.00025801826268434525,0.00025259272661060095,0.0002469473402015865,0.00024230511917266995,0.00023715404677204788,0.00023218350543174893,0.00022740077110938728,0.00022272659407462925,0.00021840425324626267,0.00021402521815616637,0.00020984801813028753,0.00020549578766804188,0.00020149591728113592,0.00019772756786551327,0.00019394801347516477,0.00019012211123481393,0.00018649862613528967,0.00018305311095900834,0.00017965241568163037,0.00017666092026047409,0.00017318199388682842,0.00017046986613422632,0.000166845420608297,0.000163990946020931,0.00016115658218041062,0.00015854250523261726,0.00015600016922689974,0.00015279208309948444,0.00015004901797510684,0.000147386483149603,0.0001452143187634647,0.00014250345702748746,0.00014044254203327,0.00013776034757029265,0.00013567575660999864,0.0001333772815996781,0.00013114348985254765,0.00012893399980384856,0.00012697972124442458,0.00012488265929277986,0.00012266295379959047,0.00012085983325960115,0.00011895097850356251,0.00011708153033396229,0.00011522405839059502,0.00011339904449414462,0.00011180801811860874,0.00010999500955222175,0.0001083288443624042,0.00010666866728570312,0.00010503955854801461,0.00010346592171117663,0.00010200920223724097,0.00010057985491584986,9.896945266518742e-05,9.740788664203137e-05,9.626502287574112e-05,9.471827070228755e-05,9.32717157411389e-05,9.185909584630281e-05,9.062087337952107e-05,8.928989700507373e-05,8.802343654679134e-05,8.682910993229598e-05,8.568092016503215e-05,8.437607903033495e-05,8.325433009304106e-05,8.207263454096392e-05,8.102512219920754e-05,7.979434303706512e-05,7.876495510572568e-05,7.776825805194676e-05,7.671212370041758e-05,7.566393469460309e-05,7.461667701136321e-05,7.354365516221151e-05,7.266581815201789e-05,7.164287671912462e-05,7.069128332659602e-05,6.984158972045407e-05,6.88417349010706e-05,6.797631067456678e-05,6.70900335535407e-05,6.61733647575602e-05,6.530238169943914e-05,6.446667975978926e-05,6.366770685417578e-05,6.282074173213914e-05,6.206060788827017e-05,6.131635745987296e-05,6.0474834754131734e-05,5.97564248892013e-05,5.899652751395479e-05,5.833670002175495e-05,5.756762402597815e-05,5.690284160664305e-05,5.612174572888762e-05,5.550744754145853e-05,5.479804895003326e-05,5.413714825408533e-05,5.349114871933125e-05,5.2856321417493746e-05,5.217779835220426e-05
20,4.7617034912109375,2.9669742584228516,2.618778705596924,2.464327096939087,2.2835636138916016,2.052842617034912,1.7492367029190063,1.3998379707336426,1.0103647708892822,0.7311277389526367,0.41136810183525085,0.22759251296520233,0.12512725591659546,0.07731316983699799,0.04196752607822418,0.02762972004711628,0.019815493375062943,0.014885040000081062,0.012004968710243702,0.010190162807703018,0.008838346228003502,0.007638031151145697,0.006671224720776081,0.00603939825668931,0.005448287818580866,0.0049770548939704895,0.004510123748332262,0.004162523429840803,0.003806593595072627,0.0035058853682130575,0.003255019895732403,0.003034678753465414,0.0028640057425945997,0.0026727591175585985,0.0025035375729203224,0.0023484923876821995,0.0022188108414411545,0.00207939138635993,0.001970485085621476,0.0018755365163087845,0.0017863326938822865,0.001696642953902483,0.0016063216608017683,0.0015319855883717537,0.0014493465423583984,0.0013922343496233225,0.0013374410336837173,0.001269438536837697,0.001214831368997693,0.0011618385324254632,0.0011199370492249727,0.0010711452923715115,0.001031715190038085,0.0009901724988594651,0.0009531958494335413,0.0009185310918837786,0.0008892017649486661,0.0008591333171352744,0.0008249292150139809,0.000798308989033103,0.00076986727071926,0.0007441632333211601,0.0007200880208984017,0.0006956514553166926,0.0006740889512002468,0.0006528352969326079,0.000632012786809355,0.0006148374523036182,0.0005985224270261824,0.0005799811915494502,0.0005608458304777741,0.0005467909504659474,0.0005289253895170987,0.0005159825668670237,0.0005017506773583591,0.0004893431323580444,0.0004753888351842761,0.00046345172449946404,0.0004503063973970711,0.00043891469249501824,0.00042756443144753575,0.00041665908065624535,0.0004064315289724618,0.0003970749385189265,0.00038647683686576784,0.0003782013081945479,0.00036952627124264836,0.0003605516394600272,0.0003518044832162559,0.000343266234267503,0.0003352223720867187,0.00032772377016954124,0.00032090512104332447,0.00031424491317011416,0.00030633676215074956,0.0003010289219673723,0.00029400771018117666,0.0002877171791624278,0.00028151064179837704,0.0002751807915046811,0.0002695506263989955,0.00026438053464517,0.0002583277819212526,0.000253579142736271,0.0002485364384483546,0.00024346890859305859,0.0002384635736234486,0.00023429356224369258,0.00022936637105885893,0.0002249836688861251,0.00022067036479711533,0.0002164518809877336,0.0002126833569491282,0.0002086020540446043,0.0002049288450507447,0.00020118537941016257,0.00019733229419216514,0.00019400181190576404,0.00019024242646992207,0.00018709742289502174,0.00018392551282886416,0.0001805071224225685,0.00017734215361997485,0.0001742330932756886,0.00017121421115007252,0.00016814153059385717,0.00016534258611500263,0.0001627498131711036,0.00015981121396180242,0.00015703414101153612,0.00015451658691745251,0.00015205555246211588,0.00014968261530157179,0.00014740898041054606,0.00014486606232821941,0.00014236089191399515,0.0001402084162691608,0.0001379084715154022,0.00013575924094766378,0.00013365123595576733,0.00013147697609383613,0.00012953874829690903,0.00012769564636982977,0.00012558247544802725,0.0001236689422512427,0.00012172170681878924,0.00011998856643913314,0.00011813476885436103,0.00011639461445156485,0.00011480041575850919,0.00011298856406938285,0.00011138807167299092,0.00010958713392028585,0.00010821993055287749,0.0001065372780431062,0.00010488496627658606,0.00010341895540477708,0.00010181277320953086,0.00010048154945252463,9.912835957948118e-05,9.765534923644736e-05,9.638037590775639e-05,9.49376481003128e-05,9.357013186672702e-05,9.23394545679912e-05,9.095879067899659e-05,8.982915460364893e-05,8.868835720932111e-05,8.738494216231629e-05,8.617660932941362e-05,8.495774090988562e-05,8.420817903243005e-05,8.27019612188451e-05,8.167938358383253e-05,8.04822047939524e-05,7.94604784459807e-05,7.840345642762259e-05,7.730966899544e-05,7.644715515198186e-05,7.564883708255365e-05,7.466167153324932e-05,7.347940118052065e-05,7.251430361066014e-05,7.161858229665086e-05,7.066442776704207e-05,6.986992957536131e-05,6.891434895806015e-05,6.81711026118137e-05,6.723359547322616e-05,6.639298953814432e-05,6.561357440659776e-05,6.482603203039616e-05,6.404452142305672e-05,6.326477159745991e-05,6.256529741222039e-05,6.180672789923847e-05,6.0951228078920394e-05,6.018388012307696e-05,5.948466423433274e-05,5.878602314624004e-05
21,4.396320343017578,2.7563223838806152,2.583141803741455,2.438326120376587,2.248955011367798,1.9929801225662231,1.676119327545166,1.284160852432251,0.8530623316764832,0.533264696598053,0.26628413796424866,0.14916247129440308,0.08498498052358627,0.04300067573785782,0.025800982490181923,0.017907219007611275,0.013029788620769978,0.010520445182919502,0.009241577237844467,0.007679339963942766,0.006585355382412672,0.005945761222392321,0.005258211866021156,0.004747021943330765,0.004345220047980547,0.003932804334908724,0.00359814940020442,0.0033286234829574823,0.0030612328555434942,0.0028498589526861906,0.0026768476236611605,0.0024908885825425386,0.0023399756755679846,0.002198166446760297,0.002069927053526044,0.0019479567417874932,0.0018271583830937743,0.0017312827985733747,0.0016426382353529334,0.0015531032113358378,0.0014806108083575964,0.0014072787016630173,0.0013428260572254658,0.0012804614380002022,0.001217262470163405,0.0011636203853413463,0.0011233282275497913,0.0010797568829730153,0.0010283192386850715,0.000984969548881054,0.0009441832662560046,0.0009124212665483356,0.000870130374096334,0.0008437311626039445,0.0008146436884999275,0.0007806214853189886,0.0007531755254603922,0.000726876431144774,0.0007005208753980696,0.000679069897159934,0.0006571089033968747,0.0006362780113704503,0.0006157421157695353,0.0005939049297012389,0.000576866150368005,0.0005589681677520275,0.0005416204803623259,0.000525912269949913,0.0005112370708957314,0.0004960749647580087,0.0004809442616533488,0.00046728411689400673,0.00045386594138108194,0.00044127414003014565,0.0004296370316296816,0.0004179312672931701,0.000406635896069929,0.0003964852658100426,0.0003854193491861224,0.00037638694630004466,0.00036697107134386897,0.00035721485619433224,0.0003480205195955932,0.00034043818595819175,0.00033201329642906785,0.0003234234463889152,0.00031622330425307155,0.0003082521434407681,0.00030113832326605916,0.00029537512455135584,0.0002874353958759457,0.0002813474857248366,0.000275082653388381,0.0002687474188860506,0.0002629303198773414,0.00025784590980038047,0.0002518876863177866,0.0002467238518875092,0.00024156527069862932,0.000236183637753129,0.00023178588890004903,0.0002269389369757846,0.00022173205798026174,0.00021743618708569556,0.00021280578221194446,0.00020850778673775494,0.00020440162916202098,0.0002004125708481297,0.00019632946350611746,0.0001927227567648515,0.0001889798732008785,0.0001853641588240862,0.00018175925652030855,0.00017842698434833437,0.00017501277034170926,0.00017147217295132577,0.00016868789680302143,0.0001655629457673058,0.00016264841542579234,0.00015992583939805627,0.00015672917652409524,0.00015401879500132054,0.00015144748613238335,0.00014862458920106292,0.00014599146379623562,0.0001435071899322793,0.00014090750482864678,0.00013869513350073248,0.00013603817205876112,0.0001336934947175905,0.0001314249384449795,0.00012912614329252392,0.0001270035281777382,0.00012500904267653823,0.00012284268450457603,0.00012079942098353058,0.00011899424862349406,0.00011702274059643969,0.00011513641948113218,0.0001132717588916421,0.000111568377178628,0.00010969077266054228,0.00010793418914545327,0.00010623949492583051,0.00010452801507199183,0.00010294339881511405,0.00010138256766367704,9.980198956327513e-05,9.832011710386723e-05,9.687191777629778e-05,9.546783985570073e-05,9.387515456182882e-05,9.260085789719597e-05,9.109960228670388e-05,8.967408211901784e-05,8.833265746943653e-05,8.712356793694198e-05,8.592176891397685e-05,8.464110578643158e-05,8.351173892151564e-05,8.217906724894419e-05,8.097775571513921e-05,7.989697041921318e-05,7.876031304476783e-05,7.769813964841887e-05,7.65930162742734e-05,7.557141361758113e-05,7.465417729690671e-05,7.350831583607942e-05,7.245500455610454e-05,7.141004607547075e-05,7.054776506265625e-05,6.954046693863347e-05,6.872842641314492e-05,6.769364699721336e-05,6.679107173113152e-05,6.58626522636041e-05,6.5022220951505e-05,6.42182058072649e-05,6.332695193123072e-05,6.264528929023072e-05,6.173085421323776e-05,6.085763016017154e-05,6.0114212828921154e-05,5.932278509135358e-05,5.8635159803088754e-05,5.783602682640776e-05,5.710816185455769e-05,5.64543079235591e-05,5.565061655943282e-05,5.5051790695870295e-05,5.4338415793608874e-05,5.3616106015397236e-05,5.3016050514997914e-05,5.229215821600519e-05,5.181874075788073e-05,5.107589822728187e-05,5.04315466969274e-05,4.983629332855344e-05,4.929939314024523e-05
22,4.298111915588379,2.736881732940674,2.550971031188965,2.3852977752685547,2.1772959232330322,1.8981608152389526,1.5930432081222534,1.1668338775634766,0.7597999572753906,0.45846956968307495,0.23109936714172363,0.13445448875427246,0.06601302325725555,0.03930412977933884,0.02525212988257408,0.017764106392860413,0.01353351678699255,0.011075585149228573,0.009417776949703693,0.0080504659563303,0.00711123226210475,0.006281733512878418,0.005627115722745657,0.005116409622132778,0.0046604713425040245,0.00429363502189517,0.003895044093951583,0.0035907302517443895,0.0033582502510398626,0.003117095213383436,0.0028969545383006334,0.0026959232054650784,0.0025283878203481436,0.002361903665587306,0.0022130568977445364,0.002096751471981406,0.0019813585095107555,0.0018684060778468847,0.0017751181731000543,0.0016814866103231907,0.00160300568677485,0.001520792138762772,0.0014498303644359112,0.001394687220454216,0.001320073613896966,0.0012647213879972696,0.0012130099348723888,0.0011602970771491528,0.001109986798837781,0.0010662811109796166,0.0010251295752823353,0.0009886808693408966,0.0009505372727289796,0.0009127182420343161,0.0008820015355013311,0.0008461622637696564,0.000815998762845993,0.0007914561429060996,0.0007635086076334119,0.0007382625481113791,0.0007144719129428267,0.0006892879027873278,0.0006670209113508463,0.0006474922993220389,0.0006285928539000452,0.0006076652789488435,0.0005918070091865957,0.0005708846147172153,0.0005580057040788233,0.0005412057507783175,0.0005252835107967257,0.0005092107458040118,0.0004941371735185385,0.00048095735837705433,0.0004670634516514838,0.00045469842734746635,0.00044254359090700746,0.00043084120261482894,0.0004202912678010762,0.0004092708695679903,0.00039793166797608137,0.00038922776002436876,0.00037983126821927726,0.0003698674263432622,0.00036068723420612514,0.00035176624078303576,0.00034350002533756196,0.0003350777842570096,0.00032817592727951705,0.0003199710336048156,0.00031312729697674513,0.00030585480271838605,0.0002991412184201181,0.000292314711259678,0.0002865869028028101,0.0002800229412969202,0.0002736888127401471,0.00026825728127732873,0.0002624084008857608,0.0002570273354649544,0.0002525146119296551,0.000246551790041849,0.00024179968750104308,0.00023690439411439002,0.00023196158872451633,0.00022729083138983697,0.0002228795492555946,0.00021840214321855456,0.0002141871809726581,0.00021014192316215485,0.0002062648127321154,0.00020240746380295604,0.00019841655739583075,0.00019489065743982792,0.00019133625028189272,0.00018757909128908068,0.0001840936456574127,0.00018092768732458353,0.00017749208200257272,0.00017476284119766206,0.00017145775200333446,0.0001683174486970529,0.00016527554544154555,0.00016246088489424437,0.0001596974761923775,0.00015693345631007105,0.0001545012928545475,0.0001516521006124094,0.00014913025370333344,0.00014678639126941562,0.0001441868080291897,0.00014188926434144378,0.00013957233750261366,0.00013727611803915352,0.00013503924128599465,0.00013275130186229944,0.000130720145534724,0.0001287829363718629,0.00012670029536820948,0.00012467247142922133,0.00012254665489308536,0.00012082228931831196,0.00011897327203769237,0.00011712118430295959,0.00011536966485437006,0.00011359514610376209,0.00011199282016605139,0.00011006004933733493,0.000108594264020212,0.0001067799748852849,0.00010561773524386808,0.00010373460099799559,0.0001022074357024394,0.00010079591447720304,9.93954818113707e-05,9.7875134088099e-05,9.656720067141578e-05,9.501064050709829e-05,9.378236427437514e-05,9.247364505426958e-05,9.110102109843865e-05,8.987604087451473e-05,8.86317138792947e-05,8.751646237215027e-05,8.627767238067463e-05,8.502364653395489e-05,8.384476677747443e-05,8.26208561193198e-05,8.153905218932778e-05,8.056162914726883e-05,7.929966523079202e-05,7.838723831810057e-05,7.730983634246513e-05,7.629831816302612e-05,7.521643419750035e-05,7.422850467264652e-05,7.32761764083989e-05,7.229635957628489e-05,7.139641820685938e-05,7.051484135445207e-05,6.961970211705193e-05,6.881214358145371e-05,6.786509038647637e-05,6.700296944472939e-05,6.607992690987885e-05,6.520390888908878e-05,6.441230652853847e-05,6.359886174323037e-05,6.275138730416074e-05,6.204835517564788e-05,6.123283674241975e-05,6.0488007875392213e-05,5.977165710646659e-05,5.907375452807173e-05,5.83514483878389e-05,5.7651050155982375e-05,5.691755723091774e-05,5.6241759011754766e-05,5.5666707339696586e-05,5.4877677030162886e-05
23,4.4385294914245605,2.950281858444214,2.5967297554016113,2.4382214546203613,2.249119997024536,1.9998105764389038,1.6412919759750366,1.3612980842590332,0.9494664669036865,0.6053040623664856,0.36436814069747925,0.2230217158794403,0.1139846071600914,0.06077103689312935,0.032600875943899155,0.02220635861158371,0.01637778989970684,0.012913260608911514,0.010501118376851082,0.008909586817026138,0.0077379364520311356,0.006905264221131802,0.006142717786133289,0.005508332513272762,0.005057148635387421,0.004629955161362886,0.004209122154861689,0.0038833185099065304,0.003609220962971449,0.0033483502920717,0.0031067118979990482,0.0028935912996530533,0.002702591707929969,0.0025336132384836674,0.0023817766923457384,0.0022564164828509092,0.002121005207300186,0.001993321580812335,0.001887364313006401,0.001792208873666823,0.001710978103801608,0.0016358954599127173,0.0015455007087439299,0.0014744921354576945,0.0014074835926294327,0.0013390566455200315,0.001277418341487646,0.0012289209989830852,0.0011784543748944998,0.0011265304638072848,0.0010804292978718877,0.001036123838275671,0.0009969129459932446,0.0009599827462807298,0.0009226566180586815,0.0008920958498492837,0.0008621384622529149,0.0008337789331562817,0.0008027724106796086,0.0007773088873364031,0.0007483159424737096,0.0007231431663967669,0.000701510813087225,0.000679849530570209,0.0006576356827281415,0.0006362871499732137,0.0006175903254188597,0.0006006881594657898,0.0005831508315168321,0.0005657188594341278,0.0005469881580211222,0.0005329151754267514,0.0005170398508198559,0.0005028145969845355,0.00048780784709379077,0.00047552259638905525,0.00046182930236682296,0.00044940441148355603,0.00043988495599478483,0.00042709324043244123,0.0004151939647272229,0.0004046380054205656,0.00039649891550652683,0.00038550389581359923,0.000377518153982237,0.00036656486918218434,0.0003582178323995322,0.0003502522886265069,0.00034133074223063886,0.0003338759415782988,0.0003256683412473649,0.0003182509390171617,0.0003120121546089649,0.00030389492167159915,0.0002977144031319767,0.0002912259369622916,0.00028468406526371837,0.00027833928470499814,0.00027254497399553657,0.0002672310220077634,0.00026173630612902343,0.0002559376589488238,0.0002511626516934484,0.0002453573397360742,0.0002408997534075752,0.00023555534426122904,0.00023153467918746173,0.00022691361664328724,0.00022233730123843998,0.00021760762319900095,0.00021344143897294998,0.00020974672224838287,0.0002058745885733515,0.0002018671075347811,0.00019813051039818674,0.00019452553533483297,0.00019108814012724906,0.00018775380158331245,0.00018406765593681484,0.00018067921337205917,0.00017754602595232427,0.0001741795422276482,0.00017135596135631204,0.00016808940563350916,0.0001656641106819734,0.00016253996000159532,0.0001594208151800558,0.00015704144607298076,0.0001542514219181612,0.00015159464965108782,0.0001490608847234398,0.00014694803394377232,0.00014444225234910846,0.00014209428627509624,0.0001394107675878331,0.0001372781116515398,0.00013504618254955858,0.00013293609663378447,0.000130636224639602,0.0001286537735722959,0.00012661400251090527,0.00012468786735553294,0.00012274045730009675,0.00012089059600839391,0.00011923006968572736,0.00011715148866642267,0.0001155013233073987,0.00011373424058547243,0.0001120704400818795,0.00011033706687157974,0.00010878293687710539,0.00010721184662543237,0.0001054425083566457,0.00010408206435386091,0.0001025242090690881,0.00010101115185534582,9.962577314581722e-05,9.813120414037257e-05,9.662027878221124e-05,9.535345452604815e-05,9.399894770467654e-05,9.273985779145733e-05,9.133965068031102e-05,9.001595026347786e-05,8.880165842128918e-05,8.749010157771409e-05,8.645343041280285e-05,8.514177170582116e-05,8.398980571655557e-05,8.276946755358949e-05,8.177063864422962e-05,8.058629464358091e-05,7.957460911711678e-05,7.855283183744177e-05,7.741731678834185e-05,7.635720976395532e-05,7.540040678577498e-05,7.442299829563126e-05,7.337894203374162e-05,7.24831479601562e-05,7.148709846660495e-05,7.054294837871566e-05,6.973894778639078e-05,6.882922752993181e-05,6.793714419472963e-05,6.705153646180406e-05,6.616200698772445e-05,6.535072316182777e-05,6.453693640651181e-05,6.371976633090526e-05,6.298818334471434e-05,6.217234476935118e-05,6.133305578259751e-05,6.068201037123799e-05,6.004164242767729e-05,5.9181678807362914e-05,5.84341942158062e-05,5.7720564655028284e-05,5.703310307580978e-05,5.633255568682216e-05
24,5.183376312255859,3.008631706237793,2.6392946243286133,2.5073835849761963,2.3661296367645264,2.1986424922943115,1.9407716989517212,1.6568831205368042,1.3200587034225464,0.9369370341300964,0.6126919984817505,0.39929327368736267,0.21770599484443665,0.1281912475824356,0.06594271957874298,0.03607562556862831,0.024063073098659515,0.017754796892404556,0.013626543805003166,0.01128130592405796,0.009595019742846489,0.008400957100093365,0.00736584747210145,0.006551941856741905,0.005960229318588972,0.005350344814360142,0.004912244156002998,0.004537478554993868,0.004150882828980684,0.0038612401112914085,0.003580212825909257,0.0033080303110182285,0.003096366999670863,0.002899991115555167,0.0027225285302847624,0.0025774615351110697,0.002415053779259324,0.00227394700050354,0.0021731031592935324,0.0020412036683410406,0.0019446270307525992,0.0018331037135794759,0.001738999504595995,0.0016442297492176294,0.0015643163351342082,0.0014995851088315248,0.0014229996595531702,0.0013671702472493052,0.0013070129789412022,0.0012459011049941182,0.001200587605126202,0.00114640558604151,0.001104838913306594,0.0010582766262814403,0.00102410395629704,0.0009821807034313679,0.0009394835215061903,0.0009143642382696271,0.000879912928212434,0.000843272777274251,0.0008158822893165052,0.0007869695546105504,0.0007642967975698411,0.0007353070541284978,0.0007140592788346112,0.0006932917749509215,0.0006685327971354127,0.00064829271286726,0.0006291400641202927,0.0006087132496759295,0.0005911046173423529,0.0005732793943025172,0.0005579223507083952,0.0005430163000710309,0.0005270379479043186,0.0005126682808622718,0.0004991653258912265,0.0004844872164539993,0.0004726866027340293,0.00046068645315244794,0.00044767087092623115,0.0004367729998193681,0.0004269112250767648,0.00041619932744652033,0.00040524970972910523,0.00039568933425471187,0.0003860753495246172,0.00037693307967856526,0.0003674028266686946,0.00035924080293625593,0.0003510936803650111,0.00034279379178769886,0.0003345190198160708,0.0003279201337136328,0.00032040243968367577,0.00031365235918201506,0.00030655806767754257,0.00029956549406051636,0.00029371166601777077,0.0002872935147024691,0.0002812577586155385,0.00027478853007778525,0.0002697700110729784,0.0002638914156705141,0.00025873567210510373,0.0002537663676775992,0.0002484056167304516,0.0002438113297102973,0.00023923348635435104,0.0002345021057408303,0.00022989251010585576,0.00022558656928595155,0.00022130002616904676,0.0002169593790313229,0.0002130128414137289,0.00020945620781276375,0.00020509051682893187,0.00020223812316544354,0.00019822079048026353,0.00019431664259172976,0.00019077284377999604,0.00018739340885076672,0.00018419478146824986,0.00018118286971002817,0.00017792757716961205,0.0001747986243572086,0.00017200315778609365,0.00016893046267796308,0.00016607750148978084,0.00016335929103661329,0.00016038815374486148,0.000157877744641155,0.00015529872325714678,0.00015281203377526253,0.0001502515806350857,0.000147801692946814,0.00014565986930392683,0.00014331880083773285,0.00014083807764109224,0.00013857352314516902,0.00013647155719809234,0.00013435921573545784,0.00013240646512713283,0.00013035368465352803,0.00012841130956076086,0.00012649776181206107,0.00012444485037121922,0.00012272394087631255,0.00012075205449946225,0.00011886852735187858,0.00011727637320291251,0.00011540584091562778,0.00011371117579983547,0.0001119899534387514,0.00011040223034797236,0.00010897125321207568,0.00010714673408074304,0.00010559261863818392,0.00010411754192318767,0.00010272149665979668,0.00010115742043126374,9.975596913136542e-05,9.825416782405227e-05,9.696920460555702e-05,9.565838990965858e-05,9.44038838497363e-05,9.298092481913045e-05,9.174785373033956e-05,9.046900959219784e-05,8.926308510126546e-05,8.798885392025113e-05,8.683710620971397e-05,8.561395952710882e-05,8.461256948066875e-05,8.34892489365302e-05,8.228719525504857e-05,8.124091982608661e-05,8.022064139368013e-05,7.912360888440162e-05,7.808262307662517e-05,7.706441101618111e-05,7.602202094858512e-05,7.512738375226036e-05,7.407108205370605e-05,7.309077045647427e-05,7.219604594865814e-05,7.128957804525271e-05,7.043962250463665e-05,6.954978016437963e-05,6.86567000229843e-05,6.780245894333348e-05,6.699313962599263e-05,6.612721335841343e-05,6.537775334436446e-05,6.449055945267901e-05,6.37688281130977e-05,6.291300087468699e-05,6.226891127880663e-05,6.140264304121956e-05,6.080142702558078e-05
25,4.687318325042725,2.8642404079437256,2.611912727355957,2.470611572265625,2.2832388877868652,2.0223891735076904,1.7249499559402466,1.328006386756897,1.018389344215393,0.634476363658905,0.3654399514198303,0.17809700965881348,0.10482073575258255,0.060556814074516296,0.03603412210941315,0.02272772043943405,0.01661585085093975,0.013207661919295788,0.011219591833651066,0.0092664435505867,0.007904731668531895,0.00707078306004405,0.006170983426272869,0.005551321431994438,0.00501997722312808,0.0045899320393800735,0.0041927797719836235,0.0038720150478184223,0.003594415495172143,0.003326387144625187,0.0030657381284981966,0.002877997700124979,0.0026739700697362423,0.0025110661517828703,0.00239445804618299,0.0022489437833428383,0.002099278150126338,0.001982202520594001,0.0018841170240193605,0.001767809153534472,0.001676160260103643,0.0015923932660371065,0.0015181864146143198,0.0014465749263763428,0.0013961255317553878,0.001321803661994636,0.001264602760784328,0.001211085938848555,0.001159363193437457,0.0011145379394292831,0.0010725809261202812,0.0010233019711449742,0.000982356141321361,0.0009464364848099649,0.0009087807848118246,0.0008756117895245552,0.0008448426960967481,0.0008149519562721252,0.0007905209204182029,0.0007595561328344047,0.0007351762615144253,0.0007111881277523935,0.0006877794512547553,0.0006661878433078527,0.0006451388471759856,0.0006229482823982835,0.0006044823094271123,0.0005853958427906036,0.0005692754639312625,0.0005546640604734421,0.0005365757970139384,0.0005223240004852414,0.0005056654918007553,0.0004926424007862806,0.00048026168951764703,0.0004660735430661589,0.00045284355292096734,0.0004411519330460578,0.00042870602919720113,0.00041902155498974025,0.0004084660904482007,0.00039739152998663485,0.0003881234733853489,0.00037789030466228724,0.00036901049315929413,0.0003598132461775094,0.0003514130075927824,0.0003430702490732074,0.0003350092738401145,0.0003280669334344566,0.000319838582072407,0.0003123323549516499,0.0003062305331695825,0.000299190724035725,0.0002920898550655693,0.00028558887424878776,0.0002796765766106546,0.00027434504590928555,0.00026829910348169506,0.00026265569613315165,0.0002570696815382689,0.0002515540109016001,0.0002467294689267874,0.00024244553060270846,0.00023677390709053725,0.00023185848840512335,0.00022746169997844845,0.00022304935555439442,0.00021844044385943562,0.00021442171419039369,0.0002102290018228814,0.0002062802668660879,0.00020245251653250307,0.00019877577142324299,0.0001946149131981656,0.0001912657608045265,0.00018814977374859154,0.00018444030138198286,0.000181257986696437,0.00017789448611438274,0.0001746971538523212,0.00017175040557049215,0.00016887413221411407,0.00016585885896347463,0.0001630112383281812,0.0001602784905117005,0.00015757094661239535,0.0001549898588564247,0.00015202403301373124,0.0001496722106821835,0.00014736715820617974,0.00014468198060058057,0.00014239650045055896,0.0001401866611558944,0.00013802411558572203,0.00013559946091845632,0.00013331611989997327,0.00013122674135956913,0.0001292274537263438,0.00012730923481285572,0.0001252765505341813,0.00012347569281700999,0.00012152455747127533,0.00011948559404117987,0.00011768427066272125,0.00011591154179768637,0.00011435460328357294,0.00011249285307712853,0.0001108971337089315,0.00010908993863267824,0.00010743877646746114,0.00010588875011308119,0.0001045310273184441,0.00010290250065736473,0.00010154447954846546,9.984991629607975e-05,9.852836228674278e-05,9.712081373436376e-05,9.572220005793497e-05,9.428580233361572e-05,9.306456195190549e-05,9.188742114929482e-05,9.051744564203545e-05,8.909995085559785e-05,8.798549970379099e-05,8.680298196850345e-05,8.54713871376589e-05,8.437455107923597e-05,8.319623884744942e-05,8.23903174023144e-05,8.130936475936323e-05,7.994534826138988e-05,7.896520401118323e-05,7.788244693074375e-05,7.681819988647476e-05,7.581403042422608e-05,7.488008122891188e-05,7.391342660412192e-05,7.283486047526821e-05,7.208292663563043e-05,7.115559128578752e-05,7.013902359176427e-05,6.932971882633865e-05,6.841404683655128e-05,6.751161708962172e-05,6.663957901764661e-05,6.594160367967561e-05,6.501335155917332e-05,6.412532093236223e-05,6.336750084301457e-05,6.265908450586721e-05,6.181475328048691e-05,6.11156938248314e-05,6.0435606428654864e-05,5.9635403886204585e-05,5.889173917239532e-05,5.82825014134869e-05,5.743892688769847e-05,5.677991794073023e-05,5.6135409977287054e-05
26,5.008736610412598,3.042100429534912,2.6799352169036865,2.529155731201172,2.380981683731079,2.1892848014831543,1.9430201053619385,1.6619125604629517,1.3788938522338867,0.9758527278900146,0.6325194239616394,0.39169153571128845,0.19254319369792938,0.10807610303163528,0.061778921633958817,0.0386173278093338,0.02745147794485092,0.02019580267369747,0.016221169382333755,0.013030365109443665,0.010797183960676193,0.00938851572573185,0.007947028614580631,0.007105366326868534,0.006357420235872269,0.005815458483994007,0.005251255817711353,0.0047515276819467545,0.00438141543418169,0.004092683084309101,0.003793931333348155,0.003500457387417555,0.003268057480454445,0.003041605930775404,0.0028549048583954573,0.0026586849708110094,0.0025230178143829107,0.0023707756772637367,0.002243208000436425,0.00212344853207469,0.0020158200059086084,0.0019125511171296239,0.0018125175265595317,0.0017289279494434595,0.0016464076470583677,0.001575858099386096,0.0015013522934168577,0.001432430581189692,0.0013718262780457735,0.0013168039731681347,0.0012672583106905222,0.001222450751811266,0.0011645617196336389,0.0011192888487130404,0.001078131957910955,0.0010384256020188332,0.0009985414799302816,0.0009586552623659372,0.0009276821510866284,0.0008950530900619924,0.0008629650692455471,0.0008357948972843587,0.0008079685503616929,0.0007801374886184931,0.0007562529062852263,0.0007320704753510654,0.0007102358504198492,0.0006895702099427581,0.0006673535681329668,0.000647375884000212,0.0006274284096434712,0.0006114231655374169,0.00059118727222085,0.0005769373383373022,0.0005588059430010617,0.000544934649951756,0.0005297858151607215,0.0005144441965967417,0.0005029758322052658,0.0004888328840024769,0.0004774478147737682,0.00046414442476816475,0.0004518398782238364,0.00044173107016831636,0.0004300303407944739,0.00041939670336432755,0.0004106708220206201,0.0004001523775514215,0.0003918204747606069,0.00038083436083979905,0.0003729970776475966,0.00036496587563306093,0.000356184842530638,0.0003480881860014051,0.0003410889476072043,0.00033420929685235023,0.00032521525281481445,0.0003188404079992324,0.0003118867753073573,0.00030509906355291605,0.000298673432553187,0.00029225184698589146,0.0002861929533537477,0.0002801143273245543,0.00027502377633936703,0.0002692308626137674,0.00026395198074169457,0.00025840423768386245,0.0002534136292524636,0.00024884569575078785,0.0002439503005007282,0.0002388580032857135,0.00023425139079336077,0.00022978964261710644,0.00022596048074774444,0.00022160177468322217,0.0002176924899686128,0.00021337502403184772,0.00020948969176970422,0.00020587121252901852,0.00020245980704203248,0.000198854468180798,0.00019535206956788898,0.00019183839322067797,0.00018821447156369686,0.00018506486958358437,0.00018211266433354467,0.00017906913126353174,0.0001756577694322914,0.00017329762340523303,0.00016965516260825098,0.00016729436174500734,0.00016431912081316113,0.000162040552822873,0.00015911688387859613,0.00015690877626184374,0.00015441370487678796,0.00015161217015702277,0.00014933827333152294,0.00014668625954072922,0.00014452016330324113,0.00014247515355236828,0.00014042681141290814,0.00013786903582513332,0.00013581913663074374,0.00013368103827815503,0.00013176522043067962,0.00012987750233151019,0.00012774960487149656,0.00012599435285665095,0.000124156751553528,0.0001221891725435853,0.00012031648657284677,0.00011882495164172724,0.00011699376773322001,0.00011517843086039647,0.0001135109196184203,0.00011201274173799902,0.00011040921526728198,0.00010876264423131943,0.00010717387340264395,0.00010569480218691751,0.0001042788935592398,0.00010274919623043388,0.00010157106589758769,9.996628068620339e-05,9.860873251454905e-05,9.731136378832161e-05,9.601131023373455e-05,9.486407361691818e-05,9.355270594824106e-05,9.212834265781567e-05,9.108441008720547e-05,8.97836362128146e-05,8.847596473060548e-05,8.746280218474567e-05,8.618502761237323e-05,8.501418051309884e-05,8.407643326791003e-05,8.286990487249568e-05,8.174956019502133e-05,8.072378841461614e-05,7.971585000632331e-05,7.873257709434256e-05,7.774505502311513e-05,7.681019633309916e-05,7.573535549454391e-05,7.486587855964899e-05,7.389615348074585e-05,7.289862696779892e-05,7.213337812572718e-05,7.11499887984246e-05,7.023994839983061e-05,6.940092862350866e-05,6.852624210296199e-05,6.771006155759096e-05,6.68693901388906e-05,6.610039417864755e-05,6.531368853757158e-05,6.454866525018588e-05
