,0,1,2,3,4,5,6,7,8,9,10,11,12,13,14,15,16,17,18,19,20,21,22,23,24,25,26,27,28,29,30,31,32,33,34,35,36,37,38,39,40,41,42,43,44,45,46,47,48,49,50,51,52,53,54,55,56,57,58,59,60,61,62,63,64,65,66,67,68,69,70,71,72,73,74,75,76,77,78,79,80,81,82,83,84,85,86,87,88,89,90,91,92,93,94,95,96,97,98,99,100,101,102,103,104,105,106,107,108,109,110,111,112,113,114,115,116,117,118,119,120,121,122,123,124,125,126,127,128,129,130,131,132,133,134,135,136,137,138,139,140,141,142,143,144,145,146,147,148,149,150,151,152,153,154,155,156,157,158,159,160,161,162,163,164,165,166,167,168,169,170,171,172,173,174,175,176,177,178,179,180,181,182,183,184,185,186,187,188,189,190,191,192,193,194,195,196,197,198,199
0,4.394560813903809,2.788886070251465,2.591139078140259,2.439922571182251,2.236578941345215,1.9504958391189575,1.5855101346969604,1.1637696027755737,0.757056713104248,0.42175906896591187,0.23601415753364563,0.11744700372219086,0.06536003202199936,0.03800409659743309,0.022721750661730766,0.016063829883933067,0.01236233301460743,0.010063334368169308,0.008478708565235138,0.007397777400910854,0.006403649225831032,0.005823070649057627,0.005148857366293669,0.0046693203039467335,0.004229863174259663,0.003893479472026229,0.0035589421167969704,0.0032559260725975037,0.0030223445501178503,0.0027935144025832415,0.0025942821521312,0.0024235276505351067,0.0022660165559500456,0.0021417534444481134,0.0020062883850187063,0.00188640714623034,0.0017861516680568457,0.0016683629946783185,0.0015819892287254333,0.0015032285591587424,0.0014250826789066195,0.0013494255254045129,0.001287828548811376,0.0012335950741544366,0.0011739498004317284,0.0011196833802387118,0.0010694952215999365,0.0010237896349281073,0.0009767478331923485,0.0009380833362229168,0.0008984269225038588,0.0008635536069050431,0.0008317262982018292,0.0008006961434148252,0.0007680653361603618,0.0007420742185786366,0.0007138974615372717,0.0006854685489088297,0.0006619018968194723,0.0006393985240720212,0.0006169599364511669,0.0005967491888441145,0.0005766431568190455,0.0005579200224019587,0.0005418421933427453,0.0005223636399023235,0.0005067733000032604,0.0004901266656816006,0.0004757576098199934,0.00046105156070552766,0.000448382634203881,0.000434587593190372,0.00042231299448758364,0.00041039229836314917,0.00039973328239284456,0.0003876233531627804,0.00037733899080194533,0.00036614242708310485,0.0003567709354683757,0.0003480955201666802,0.0003388563054613769,0.00032948717125691473,0.00032070509041659534,0.0003127889067400247,0.0003056343412026763,0.00029820387135259807,0.0002906279405578971,0.00028372081578709185,0.0002766818506643176,0.00026966066798195243,0.00026360651827417314,0.000257692183367908,0.000251360354013741,0.0002459071984048933,0.000240000692429021,0.0002349555870750919,0.00022927019745111465,0.00022502180945593864,0.00021938684221822768,0.0002147101768059656,0.00021016833488829434,0.00020554549701046199,0.00020151209901086986,0.00019713335495907813,0.00019304743909742683,0.0001889280101750046,0.0001851849810918793,0.00018135485879611224,0.00017753728025127202,0.00017415698675904423,0.00017050810856744647,0.00016729907656554133,0.0001638908142922446,0.0001610557228559628,0.00015770859317854047,0.0001546989951748401,0.00015162804629653692,0.00014896354696247727,0.00014619600551668555,0.00014361299690790474,0.00014072969497647136,0.00013839692110195756,0.00013565168774221092,0.00013326022599358112,0.00013079038762953132,0.00012856003013439476,0.00012604471703525633,0.0001241431455127895,0.00012176408927189186,0.00011980863200733438,0.00011745619849534705,0.00011541716230567545,0.0001137846993515268,0.00011167080810992047,0.00010972478048643097,0.00010791277600219473,0.0001061150396708399,0.00010430413385620341,0.00010251373169012368,0.00010080607171403244,9.920363663695753e-05,9.766063885763288e-05,9.625404345570132e-05,9.45486463024281e-05,9.305770799983293e-05,9.145805233856663e-05,9.007578046293929e-05,8.862958929967135e-05,8.731624984648079e-05,8.584486204199493e-05,8.460712706437334e-05,8.332467405125499e-05,8.20047062006779e-05,8.080901170615107e-05,7.949283462949097e-05,7.836259464966133e-05,7.710455975029618e-05,7.593791087856516e-05,7.480541535187513e-05,7.368664228124544e-05,7.26416619727388e-05,7.157633808674291e-05,7.054426532704383e-05,6.954184209462255e-05,6.856143590994179e-05,6.750245665898547e-05,6.656203186139464e-05,6.559776375070214e-05,6.469522486440837e-05,6.372060306603089e-05,6.277825741562992e-05,6.194324669195339e-05,6.110416143201292e-05,6.0261078033363447e-05,5.948855687165633e-05,5.8671685110311955e-05,5.784467430203222e-05,5.698213499272242e-05,5.6256652896991e-05,5.549902925849892e-05,5.4725755035178736e-05,5.396412961999886e-05,5.3251682402333245e-05,5.2509658416965976e-05,5.184860492590815e-05,5.11318830831442e-05,5.0460057536838576e-05,4.977493517799303e-05,4.9139056500280276e-05,4.855988663621247e-05,4.783626718563028e-05,4.7239776904461905e-05,4.658968828152865e-05,4.6053348341956735e-05,4.546127456706017e-05,4.4903696107212454e-05,4.430540502653457e-05,4.374699346954003e-05,4.314884790801443e-05,4.265320239937864e-05
1,4.3360981941223145,2.7890186309814453,2.6049420833587646,2.46455979347229,2.2923598289489746,2.0417325496673584,1.682842493057251,1.265863299369812,0.8192684054374695,0.4444594085216522,0.2298913598060608,0.10299919545650482,0.05069246515631676,0.030956994742155075,0.020571935921907425,0.015279688872396946,0.011927955783903599,0.009833221323788166,0.008315622806549072,0.007259359583258629,0.006521526724100113,0.005688929930329323,0.00504115829244256,0.004562612157315016,0.004091131500899792,0.0037469547241926193,0.0034343209117650986,0.003144160844385624,0.0028881418984383345,0.002682412276044488,0.0024897854309529066,0.002314236480742693,0.002163149882107973,0.0020290676038712263,0.001905650133267045,0.001799937803298235,0.0016794397961348295,0.001579183153808117,0.001497467514127493,0.0014221484307199717,0.0013484508963301778,0.00128370791207999,0.001221377868205309,0.001154072117060423,0.0011034597409889102,0.0010531502775847912,0.001003512879833579,0.0009598169126547873,0.0009190455311909318,0.0008822568925097585,0.0008441208628937602,0.0008104236330837011,0.0007777616265229881,0.0007489149575121701,0.0007184927817434072,0.00069269142113626,0.0006670432630926371,0.0006439941353164613,0.0006221921066753566,0.000600383325945586,0.000580186489969492,0.0005596536793746054,0.0005405221018008888,0.0005229740054346621,0.0005060022231191397,0.0004913084558211267,0.00047613083734177053,0.0004610356700140983,0.00044632679782807827,0.0004326260241214186,0.00042086964822374284,0.00040832810918800533,0.00039661049959249794,0.0003856949624605477,0.0003740429528988898,0.00036450265906751156,0.0003541144251357764,0.00034526069066487253,0.00033515269751660526,0.0003266082494519651,0.0003178456099703908,0.0003093862906098366,0.00030208550742827356,0.00029416268807835877,0.0002865838469006121,0.0002801775699481368,0.00027383980341255665,0.000266453018411994,0.00026044706464745104,0.00025360423023812473,0.0002473886706866324,0.0002423310506856069,0.00023686789791099727,0.00023160998534876853,0.00022614073532167822,0.00022093740699347109,0.00021617412858176976,0.00021110853413119912,0.0002064384607365355,0.00020264861814212054,0.00019810095545835793,0.00019394270202610642,0.0001894629531307146,0.0001857737370301038,0.00018165238725487143,0.00017795634630601853,0.00017447835125494748,0.00017095798102673143,0.00016745210450608283,0.00016416999278590083,0.00016101018991321325,0.00015781343972776085,0.0001545908598927781,0.0001517771161161363,0.00014877066132612526,0.00014594447566196322,0.0001432784483768046,0.00014062787522561848,0.00013797639985568821,0.00013538685743696988,0.0001328679791186005,0.00013052349095232785,0.00012820390111301094,0.0001259563723579049,0.00012369976320769638,0.00012144157517468557,0.00011935400107176974,0.00011717016604961827,0.00011505350994411856,0.0001131639801315032,0.00011124987213406712,0.00010928166739176959,0.00010777027637232095,0.00010566409764578566,0.00010402577026979998,0.00010220924741588533,0.00010055182065116242,9.885207691695541e-05,9.720386879052967e-05,9.564642095938325e-05,9.408133337274194e-05,9.276758646592498e-05,9.10393864614889e-05,8.977534889709204e-05,8.830666774883866e-05,8.691952825756744e-05,8.555458771297708e-05,8.415005140705034e-05,8.286606316687539e-05,8.161001460393891e-05,8.042497211135924e-05,7.916343020042405e-05,7.800709863658994e-05,7.677921530557796e-05,7.572374306619167e-05,7.451116107404232e-05,7.339584408327937e-05,7.2326380177401e-05,7.122509850887582e-05,7.02187535353005e-05,6.916039274074137e-05,6.819397094659507e-05,6.721948739141226e-05,6.624679372180253e-05,6.531873805215582e-05,6.432630470953882e-05,6.340540858218446e-05,6.254418985918164e-05,6.160597695270553e-05,6.0759102780139074e-05,5.9923197113676e-05,5.911624975851737e-05,5.8234334574081004e-05,5.745580347138457e-05,5.663050978910178e-05,5.591124499915168e-05,5.514981967280619e-05,5.435336061054841e-05,5.366679033613764e-05,5.291405614116229e-05,5.218484875513241e-05,5.144951501279138e-05,5.081363269709982e-05,5.011795292375609e-05,4.942006489727646e-05,4.876907041762024e-05,4.8152436647797003e-05,4.751153028337285e-05,4.687116597779095e-05,4.633143907994963e-05,4.565356357488781e-05,4.509769132710062e-05,4.453700239537284e-05,4.391809488879517e-05,4.332670141593553e-05,4.281388464733027e-05,4.225119482725859e-05,4.1708994103828445e-05,4.118154902243987e-05,4.0648719732416794e-05
2,4.06363582611084,2.7138261795043945,2.563324451446533,2.397645950317383,2.1873011589050293,1.8579094409942627,1.4204083681106567,0.971062421798706,0.5780713558197021,0.28736943006515503,0.13756205141544342,0.07253321260213852,0.037962011992931366,0.02306121587753296,0.015308553352952003,0.01166384108364582,0.009457973763346672,0.007935361936688423,0.006823042873293161,0.006030989345163107,0.005432536825537682,0.0047989790327847,0.004304063972085714,0.003906628116965294,0.0035582345444709063,0.0032528189476579428,0.002971497131511569,0.002774878405034542,0.0025584346149116755,0.0023512213956564665,0.002198875183239579,0.0020530319306999445,0.001920994371175766,0.0018068854697048664,0.0016943602822721004,0.0016071514692157507,0.0015085996128618717,0.0014262632466852665,0.0013542284723371267,0.0012778518721461296,0.001220549107529223,0.0011587190674617887,0.001105913077481091,0.0010499709751456976,0.000999858370050788,0.0009584229555912316,0.0009172696736641228,0.0008753157453611493,0.0008396097691729665,0.0008028878946788609,0.0007731427322141826,0.0007401056936942041,0.0007102546514943242,0.0006851817015558481,0.0006588049582205713,0.0006376286037266254,0.0006137575837783515,0.0005904517020098865,0.0005698204622603953,0.0005507985479198396,0.0005312300636433065,0.0005135682295076549,0.0004959969664923847,0.0004803548217751086,0.00046534629655070603,0.0004523372044786811,0.00043772312346845865,0.0004236441745888442,0.00041154964128509164,0.0003983978240285069,0.0003866528859362006,0.0003767127636820078,0.00036498106783255935,0.0003546156222000718,0.0003445062611717731,0.0003351253690198064,0.0003266436397098005,0.0003180438943672925,0.00031048848177306354,0.0003015680704265833,0.00029315470601432025,0.0002858379448298365,0.00027858937392011285,0.0002711584384087473,0.00026466831332072616,0.00025874891434796154,0.000251877965638414,0.00024520762963220477,0.00023977503587957472,0.00023385731037706137,0.00022836543212179095,0.00022409154917113483,0.00021843564172741026,0.00021253414161037654,0.00020840355136897415,0.00020333155407570302,0.0001985975686693564,0.0001948035351233557,0.00019046690431423485,0.0001860039628809318,0.00018186497618444264,0.00017824476526584476,0.00017466225835960358,0.00017027083958964795,0.00016713082732167095,0.00016354642866645008,0.00016017022426240146,0.00015676888870075345,0.00015371628978755325,0.00015058284043334424,0.00014774836017750204,0.00014491128968074918,0.0001418699830537662,0.00013899814803153276,0.00013628351734951138,0.00013367684732656926,0.00013119906361680478,0.00012874871026724577,0.00012632353173103184,0.00012413867807481438,0.00012189483823021874,0.00011942633864236996,0.0001173473137896508,0.00011497005471028388,0.0001130436867242679,0.0001108930810005404,0.00010910088894888759,0.00010720699356170371,0.00010520657087909058,0.00010326471965527162,0.00010155449854210019,9.974787099054083e-05,9.793923527467996e-05,9.631628199713305e-05,9.465090988669544e-05,9.305458661401644e-05,9.159497130895033e-05,8.993494702735916e-05,8.839853398967534e-05,8.705607615411282e-05,8.561994764022529e-05,8.421140955761075e-05,8.274596621049568e-05,8.14454469946213e-05,8.014526247279719e-05,7.875381561461836e-05,7.766713679302484e-05,7.639109389856458e-05,7.5147720053792e-05,7.407039811369032e-05,7.280684803845361e-05,7.172442565206438e-05,7.072883454384282e-05,6.95616181474179e-05,6.855802348582074e-05,6.742930418113247e-05,6.635915633523837e-05,6.539093010360375e-05,6.444978498620912e-05,6.358641985571012e-05,6.255108019104227e-05,6.156052404548973e-05,6.064293847884983e-05,5.9767713537439704e-05,5.894634887226857e-05,5.8047397033078596e-05,5.7242392358602956e-05,5.642241012537852e-05,5.5644504755036905e-05,5.47975541849155e-05,5.400695590651594e-05,5.3187945013633e-05,5.2488609071588144e-05,5.176036574994214e-05,5.105598393129185e-05,5.034713467466645e-05,4.965048356098123e-05,4.893749064649455e-05,4.832975901081227e-05,4.762193202623166e-05,4.695287861977704e-05,4.6396045945584774e-05,4.5696429879171774e-05,4.505641118157655e-05,4.445619197213091e-05,4.390971298562363e-05,4.3281288526486605e-05,4.274839739082381e-05,4.2156316339969635e-05,4.1611212509451434e-05,4.1095638152910396e-05,4.051480573252775e-05,4.0020542655838653e-05,3.9450878830393776e-05,3.899724833900109e-05,3.845594255835749e-05,3.796919190790504e-05,3.746920629055239e-05,3.703151014633477e-05,3.656938861240633e-05
3,3.9545865058898926,2.693178176879883,2.545783758163452,2.391303777694702,2.142725944519043,1.801228404045105,1.329463243484497,0.9343993067741394,0.48711860179901123,0.23170042037963867,0.10789067298173904,0.053002141416072845,0.032492902129888535,0.019984301179647446,0.013565286062657833,0.010102862492203712,0.008575537241995335,0.007221912499517202,0.006256322842091322,0.005568177439272404,0.004933524411171675,0.00443284772336483,0.004000436514616013,0.003653968684375286,0.003347272053360939,0.0030433302745223045,0.002800362417474389,0.002612392185255885,0.0024298743810504675,0.002258374122902751,0.002112939488142729,0.0019722541328519583,0.0018464246531948447,0.0017424566904082894,0.0016439449973404408,0.0015495329862460494,0.0014698108425363898,0.0013997708447277546,0.00131791562307626,0.0012536890571936965,0.0011880992678925395,0.0011299321195110679,0.0010759058641269803,0.0010283852461725473,0.000977846677415073,0.0009347412851639092,0.0008947700844146311,0.0008580000139772892,0.0008253558189608157,0.0007893454749137163,0.0007565367268398404,0.0007288752822205424,0.0007014855509623885,0.0006756745278835297,0.0006506917416118085,0.0006302074179984629,0.0006051913369446993,0.0005827613058499992,0.0005625814665108919,0.000543518690392375,0.0005248120869509876,0.0005077227251604199,0.0004932395531795919,0.0004760816227644682,0.00046012073289602995,0.00044593866914510727,0.0004338635772000998,0.0004196865193080157,0.0004075601464137435,0.000396030634874478,0.00038486477569676936,0.000372461712686345,0.000362397579010576,0.00035253140958957374,0.00034180586226284504,0.0003340041439514607,0.00032452066079713404,0.0003157052560709417,0.00030734841129742563,0.00029864482348784804,0.0002906260488089174,0.00028354726964607835,0.00027637655148282647,0.0002699752803891897,0.0002626585483085364,0.00025660431128926575,0.00025039963657036424,0.0002454267523717135,0.00023836741456761956,0.00023289724776986986,0.0002279267500853166,0.00022228003945201635,0.0002172173117287457,0.00021223885414656252,0.00020774475706275553,0.00020310997206252068,0.00019846881332341582,0.00019416796567384154,0.0001902433723444119,0.00018576427828520536,0.0001819030148908496,0.00017822586232796311,0.0001744879991747439,0.00017086115258280188,0.0001672624348429963,0.0001636895613046363,0.0001604412100277841,0.0001571889006299898,0.00015434829401783645,0.0001513800525572151,0.00014838458446320146,0.00014519422256853431,0.00014268796076066792,0.0001397102023474872,0.00013693391520064324,0.00013429920363705605,0.00013193528866395354,0.00012941229215357453,0.00012720987433567643,0.00012473274546209723,0.000122466852189973,0.00012031068763462827,0.00011793091107392684,0.00011592074588406831,0.00011382563388906419,0.00011166600597789511,0.00010983818356180564,0.00010780394950415939,0.0001060378854162991,0.00010416552686365321,0.00010243706492474303,0.00010072533041238785,9.895657422021031e-05,9.720377420308068e-05,9.559703903505579e-05,9.403323201695457e-05,9.251000301446766e-05,9.094000415643677e-05,8.941295527620241e-05,8.804849494481459e-05,8.646821515867487e-05,8.511649502906948e-05,8.381521911360323e-05,8.25709939817898e-05,8.11734062153846e-05,7.988025026861578e-05,7.879101030994207e-05,7.745185575913638e-05,7.62088384362869e-05,7.506093970732763e-05,7.394858403131366e-05,7.284124876605347e-05,7.175234350143e-05,7.064555393299088e-05,6.950097304070368e-05,6.846005271654576e-05,6.751621549483389e-05,6.647853297181427e-05,6.557309097843245e-05,6.455908442148939e-05,6.363922875607386e-05,6.272165046539158e-05,6.185745587572455e-05,6.095622302382253e-05,6.0080987168475986e-05,5.921672345721163e-05,5.828631401527673e-05,5.759235500590876e-05,5.671174221788533e-05,5.592750312644057e-05,5.510248229256831e-05,5.4318301408784464e-05,5.365055403672159e-05,5.2846302423859015e-05,5.213557597016916e-05,5.145969771547243e-05,5.075746958027594e-05,5.0051578000420704e-05,4.938548227073625e-05,4.8677175072953105e-05,4.801735849468969e-05,4.7395966248586774e-05,4.6788929466856644e-05,4.611138501786627e-05,4.555171472020447e-05,4.495516623137519e-05,4.435453229234554e-05,4.374445416033268e-05,4.317769344197586e-05,4.264694143785164e-05,4.20921751356218e-05,4.160481694270857e-05,4.105426341993734e-05,4.052219810546376e-05,3.9993519749259576e-05,3.946158540202305e-05,3.9003258279990405e-05,3.845898754661903e-05,3.800349441007711e-05,3.7515776057261974e-05
4,4.610373497009277,2.7988269329071045,2.621699810028076,2.4927210807800293,2.3189804553985596,2.1030502319335938,1.8074628114700317,1.4197684526443481,0.9946652054786682,0.6343669891357422,0.34820377826690674,0.15319257974624634,0.07633963227272034,0.04587939381599426,0.028855880722403526,0.019878234714269638,0.014988885261118412,0.01249006763100624,0.010282497853040695,0.008794381283223629,0.007649451494216919,0.006797279696911573,0.005884781014174223,0.005279308184981346,0.0048110284842550755,0.004369562957435846,0.003981851506978273,0.003605361096560955,0.0033499395940452814,0.0031002387404441833,0.0028888294473290443,0.002677851589396596,0.0025025904178619385,0.002327617025002837,0.0021877815015614033,0.0020462945103645325,0.0019279452972114086,0.0018242133082821965,0.0017134696245193481,0.0016237646341323853,0.0015265283873304725,0.0014523478457704186,0.0013817542931064963,0.0013150001177564263,0.001258726930245757,0.0012013250961899757,0.0011408815626055002,0.001091978163458407,0.001046399469487369,0.0010022862115874887,0.000964833190664649,0.0009198231273330748,0.0008827385026961565,0.0008507888414897025,0.0008182592573575675,0.0007860701880417764,0.0007565381820313632,0.0007294005481526256,0.0007022154168225825,0.0006797001697123051,0.0006552699487656355,0.0006335571524687111,0.000613041571341455,0.0005924732540734112,0.0005738108302466571,0.0005547800683416426,0.0005378753994591534,0.0005221058963797987,0.0005049663013778627,0.0004897578619420528,0.0004765954508911818,0.00046309176832437515,0.00044929099385626614,0.00043524926877580583,0.00042266820673830807,0.0004120613157283515,0.00039963776362128556,0.0003892644017469138,0.000379096542019397,0.0003690689627546817,0.00035949048469774425,0.00034969017724506557,0.00034077707096002996,0.0003326351579744369,0.00032352807465940714,0.00031565444078296423,0.0003085063071921468,0.0003016511327587068,0.0002932886127382517,0.0002870832977350801,0.000280207023024559,0.0002730832202360034,0.00026663520839065313,0.00026054767658933997,0.0002548395423218608,0.00024905643658712506,0.00024368271988350898,0.00023847325064707547,0.00023329110990744084,0.00022831940441392362,0.00022326009639073163,0.00021862852736376226,0.00021422367717605084,0.00020937345107086003,0.00020525230502244085,0.00020105598377995193,0.0001969225995708257,0.00019270447955932468,0.0001890577404992655,0.00018528963846620172,0.00018143803754355758,0.00017797380860429257,0.0001746460620779544,0.00017113189096562564,0.0001678360567893833,0.00016474856238346547,0.00016174622578546405,0.000158611117512919,0.00015572179108858109,0.0001528719294583425,0.00015007435285951942,0.0001471184368710965,0.0001444251975044608,0.0001420372718712315,0.0001395480358041823,0.00013697959366254508,0.00013440250768326223,0.00013198786473367363,0.00012982792395632714,0.0001275754621019587,0.00012544068158604205,0.00012316166248638183,0.00012114352284697816,0.00011901493417099118,0.00011707963130902499,0.00011523096327437088,0.00011325017840135843,0.0001112703830585815,0.00010953005403280258,0.00010792895773192868,0.00010604583803797141,0.00010418218153063208,0.00010262764408253133,0.00010099063365487382,9.929585212375969e-05,9.776359365787357e-05,9.614291047910228e-05,9.477583807893097e-05,9.316617069998756e-05,9.187153773382306e-05,9.04366752365604e-05,8.90044539119117e-05,8.765683742240071e-05,8.632489334559068e-05,8.502172568114474e-05,8.364704990526661e-05,8.250975952250883e-05,8.126020838972181e-05,8.003497350728139e-05,7.884640217525885e-05,7.762680615996942e-05,7.666047167731449e-05,7.537971396232024e-05,7.434302824549377e-05,7.329067739192396e-05,7.225591252790764e-05,7.110933074727654e-05,7.010939589235932e-05,6.924218905624002e-05,6.812815990997478e-05,6.72265887260437e-05,6.633702287217602e-05,6.540033064084128e-05,6.44633691990748e-05,6.361951818689704e-05,6.268312426982448e-05,6.18720514466986e-05,6.100509926909581e-05,6.017429041094147e-05,5.9315960243111476e-05,5.8506055211182684e-05,5.772360600531101e-05,5.692341801477596e-05,5.61828346690163e-05,5.554470044444315e-05,5.4764710512245074e-05,5.401592352427542e-05,5.32494013896212e-05,5.256964868749492e-05,5.1851562602678314e-05,5.120485366205685e-05,5.055166911915876e-05,4.9886471970239654e-05,4.9298061640001833e-05,4.8690122639527544e-05,4.7984089178498834e-05,4.738366624224e-05,4.680186975747347e-05,4.620751496986486e-05,4.564855044009164e-05
5,4.373978137969971,2.7277889251708984,2.567689895629883,2.4214162826538086,2.216141700744629,1.9477732181549072,1.548050045967102,1.1524356603622437,0.7673110365867615,0.413097620010376,0.19853657484054565,0.10419683158397675,0.051397744566202164,0.030904335901141167,0.020737305283546448,0.015294401906430721,0.012154988944530487,0.010151113383471966,0.008604924194514751,0.007500203792005777,0.006568524055182934,0.005862959194928408,0.005189229268580675,0.004746738821268082,0.004299637395888567,0.003922099247574806,0.003592731198295951,0.003302461002022028,0.0030311199370771646,0.0028490477707237005,0.0026439339853823185,0.002460242249071598,0.0022944891825318336,0.0021579626481980085,0.0020240130834281445,0.0019022198393940926,0.001787872868590057,0.0016874921275302768,0.0015975224087014794,0.0015216174069792032,0.0014487938024103642,0.0013716963585466146,0.0013015528675168753,0.0012399682309478521,0.0011811514850705862,0.0011228724615648389,0.0010768952779471874,0.001029644743539393,0.0009852900402620435,0.0009496331913396716,0.000910858332645148,0.0008703846833668649,0.0008370563737116754,0.0008041752153076231,0.0007742636953480542,0.0007482154760509729,0.0007168878801167011,0.0006913770921528339,0.0006661705556325614,0.000644989195279777,0.0006231408333405852,0.0006011705845594406,0.0005813094321638346,0.0005610203952528536,0.0005439533269964159,0.0005265389336273074,0.0005101877031847835,0.0004951437585987151,0.00048042574780993164,0.0004662849532905966,0.000452065170975402,0.00043893640395253897,0.0004261288559064269,0.00041332771070301533,0.0004026498645544052,0.0003913333057425916,0.0003810398920904845,0.0003700742672663182,0.0003605470701586455,0.00035107776056975126,0.00034193365718238056,0.00033313126186840236,0.00032445735996589065,0.0003160447522532195,0.0003083111369051039,0.000300891901133582,0.000293226185021922,0.0002865005808416754,0.0002800622896756977,0.0002728300169110298,0.0002667923690751195,0.0002609803050290793,0.0002549300843384117,0.00024914462119340897,0.00024307412968482822,0.00023779773619025946,0.00023275066632777452,0.00022754998644813895,0.00022228610760066658,0.00021827241289429367,0.00021321953681763262,0.00020823281374759972,0.00020408720592968166,0.00019991377484984696,0.0001956859923666343,0.00019166739366482943,0.00018794303468894213,0.00018382800044491887,0.00018053939857054502,0.00017663334438111633,0.0001730591175146401,0.00017000186198856682,0.00016647226584609598,0.00016325635078828782,0.00016017632151488215,0.0001573133486090228,0.0001544501428725198,0.00015132181579247117,0.00014841688971500844,0.00014575243403669447,0.0001429863623343408,0.00014028292207513005,0.00013784792099613696,0.0001355407148366794,0.00013290390779729933,0.00013056705938652158,0.00012814330693800002,0.00012580947077367455,0.000123836231068708,0.00012163790233898908,0.0001198141326312907,0.00011747729877242818,0.00011540279228938743,0.00011346727842465043,0.00011139911657664925,0.00010965883848257363,0.00010775699047371745,0.00010607994045130908,0.00010443475912325084,0.00010254291555611417,0.00010105266119353473,9.950000094249845e-05,9.781604603631422e-05,9.607624815544114e-05,9.472626697970554e-05,9.313880582340062e-05,9.158109605778009e-05,9.011434303829446e-05,8.868974691722542e-05,8.730134868528694e-05,8.59555002534762e-05,8.468422311125323e-05,8.324097871081904e-05,8.211000385927036e-05,8.076693484326825e-05,7.949721475597471e-05,7.838464080123231e-05,7.725766045041382e-05,7.605672726640478e-05,7.493751763831824e-05,7.381806790363044e-05,7.272900984389707e-05,7.159876986406744e-05,7.066118268994614e-05,6.964429485378787e-05,6.865497562102973e-05,6.763690180378035e-05,6.669455615337938e-05,6.577574094990268e-05,6.482931348728016e-05,6.386669701896608e-05,6.29605638096109e-05,6.208989361766726e-05,6.12366056884639e-05,6.037577986717224e-05,5.958361361990683e-05,5.87648682994768e-05,5.7882116379914805e-05,5.7112076319754124e-05,5.6326232879655436e-05,5.5593656725250185e-05,5.4853760957485065e-05,5.40869623364415e-05,5.335486275725998e-05,5.261812839307822e-05,5.190375668462366e-05,5.1264501962577924e-05,5.066415178589523e-05,4.993129550712183e-05,4.929823262500577e-05,4.8747686378192157e-05,4.798439840669744e-05,4.739680662169121e-05,4.6792254579486325e-05,4.6152919821906835e-05,4.553242615656927e-05,4.4989468733547255e-05,4.439752592588775e-05,4.3875330447917804e-05,4.3382999137975276e-05
6,4.213831424713135,2.7650744915008545,2.566863536834717,2.419731616973877,2.1955478191375732,1.9000157117843628,1.4830243587493896,1.0447194576263428,0.6794667840003967,0.37429550290107727,0.18279583752155304,0.09208682924509048,0.04461266100406647,0.02678380347788334,0.018674978986382484,0.014765070751309395,0.011229395866394043,0.009379273280501366,0.007957459427416325,0.006980036851018667,0.006092222407460213,0.005442645866423845,0.004884258843958378,0.0044802045449614525,0.004023456014692783,0.0036626558285206556,0.0033775647170841694,0.0031037849839776754,0.0028468396048992872,0.0026304626371711493,0.002445994410663843,0.002283508190885186,0.0021360081154853106,0.0020116919185966253,0.0018891304498538375,0.0017688767984509468,0.001663471688516438,0.0015743867261335254,0.0014890936436131597,0.001407951582223177,0.0013373502297326922,0.0012711710296571255,0.0012112036347389221,0.0011564861051738262,0.0011031108442693949,0.0010509375715628266,0.0010025952942669392,0.0009603401995263994,0.0009203150984831154,0.0008820744697004557,0.0008475418435409665,0.0008117118268273771,0.0007791186799295247,0.000751294894143939,0.0007237624377012253,0.0006942868931218982,0.0006675624172203243,0.00064412213396281,0.0006222865195013583,0.0005990307545289397,0.0005791665171273053,0.0005600391887128353,0.0005395750049501657,0.0005247765220701694,0.0005087251774966717,0.0004919747589156032,0.0004750516964122653,0.00046003182069398463,0.00044695811811834574,0.000432435394031927,0.00042001751717180014,0.0004075764154549688,0.00039546863990835845,0.00038519411464221776,0.00037354897358454764,0.0003641747171059251,0.00035378325264900923,0.0003438889980316162,0.00033478211844339967,0.0003256750642322004,0.00031711134943179786,0.00030888826586306095,0.00030056521063670516,0.00029378628823906183,0.00028594027389772236,0.000278217950835824,0.00027172587579116225,0.00026531334151513875,0.0002590675139799714,0.0002530313213355839,0.0002469881437718868,0.00024201255291700363,0.00023603141016792506,0.00023091209004633129,0.00022479816107079387,0.00021993658447172493,0.0002149124484276399,0.0002102819998981431,0.00020562807912938297,0.00020084962307009846,0.00019651018374133855,0.00019262360001448542,0.0001889287814265117,0.0001847195380833,0.00018078421999234706,0.00017686039791442454,0.00017337108147330582,0.00016992303426377475,0.0001664727315073833,0.00016341886657755822,0.00016013522690627724,0.00015669300046283752,0.000153756991494447,0.00015094198170118034,0.00014787779946345836,0.000145113212056458,0.00014238644507713616,0.00013987526472192258,0.0001369426609016955,0.0001343369804089889,0.0001318938739132136,0.0001296167029067874,0.0001275114482268691,0.00012498430442065,0.00012274285836610943,0.0001204692161991261,0.00011842788080684841,0.00011635518603725359,0.00011415151675464585,0.00011226263450225815,0.00011039432865800336,0.0001085083422367461,0.00010671837662812322,0.00010477385512785986,0.00010320085129933432,0.00010138394281966612,9.972471161745489e-05,9.79346368694678e-05,9.638180927140638e-05,9.4746814284008e-05,9.327811130788177e-05,9.187328396365047e-05,9.036736446432769e-05,8.880528912413865e-05,8.744955266593024e-05,8.595367398811504e-05,8.470917964586988e-05,8.340359636349604e-05,8.201618038583547e-05,8.084849832812324e-05,7.952671876410022e-05,7.834601274225861e-05,7.716446270933375e-05,7.58544119889848e-05,7.484760135412216e-05,7.373488915618509e-05,7.255836680997163e-05,7.14843554305844e-05,7.047456165309995e-05,6.941640458535403e-05,6.835776002844796e-05,6.738536467310041e-05,6.639680213993415e-05,6.538065645145252e-05,6.44381798338145e-05,6.350528565235436e-05,6.260840018512681e-05,6.169743573991582e-05,6.084952110541053e-05,5.997375046717934e-05,5.91361167607829e-05,5.83368273510132e-05,5.75271260458976e-05,5.6667005992494524e-05,5.5959608289413154e-05,5.5119413445936516e-05,5.4345233365893364e-05,5.3687559557147324e-05,5.292310015647672e-05,5.2206865802872926e-05,5.1471586630214006e-05,5.073873035144061e-05,5.0070502766175196e-05,4.943490057485178e-05,4.875722879660316e-05,4.809748861589469e-05,4.748202263726853e-05,4.68888392788358e-05,4.6238066715886816e-05,4.564440678223036e-05,4.507661287789233e-05,4.445894592208788e-05,4.388604065752588e-05,4.3322455894667655e-05,4.2782190575962886e-05,4.220446135150269e-05,4.168888335698284e-05,4.1124600102193654e-05,4.063606320414692e-05,4.009924305137247e-05
7,4.4640727043151855,2.7872161865234375,2.6086883544921875,2.4766311645507812,2.286921262741089,2.0467779636383057,1.7022050619125366,1.328096628189087,0.9146249294281006,0.5816226601600647,0.3251396715641022,0.19480174779891968,0.10606538504362106,0.053074583411216736,0.03334067016839981,0.021163467317819595,0.01523574534803629,0.011724005453288555,0.010006004944443703,0.008407811634242535,0.007354010362178087,0.0064720772206783295,0.00584985688328743,0.005315829534083605,0.004821467213332653,0.004384858533740044,0.00406359788030386,0.0037237077485769987,0.003453252138569951,0.003190733026713133,0.002958435332402587,0.002756764180958271,0.002573717851191759,0.0023959169629961252,0.0022659096866846085,0.0021343918051570654,0.002001336310058832,0.0018843907164409757,0.0017875655321404338,0.001695206854492426,0.0016084155067801476,0.0015211409190669656,0.0014467729488387704,0.0013831849209964275,0.0013150459853932261,0.0012594901490956545,0.001203966443426907,0.001150169293396175,0.001099557033739984,0.0010549853323027492,0.001012318185530603,0.0009709011064842343,0.000929923087824136,0.0008940793923102319,0.0008605542243458331,0.0008291578269563615,0.0007982865790836513,0.0007685177843086421,0.0007418277091346681,0.0007148035219870508,0.0006891581579111516,0.0006655897595919669,0.0006430827779695392,0.0006232152227312326,0.0006023502792231739,0.0005825106054544449,0.0005645810160785913,0.0005470283213071525,0.000530957942828536,0.0005130936624482274,0.0004990471061319113,0.0004827977973036468,0.0004692580841947347,0.0004545492702163756,0.00044378568418323994,0.0004293731180950999,0.0004169106832705438,0.0004054173768963665,0.0003947140939999372,0.0003829599590972066,0.00037322554271668196,0.0003631405998021364,0.0003532176779117435,0.0003442234010435641,0.0003353792999405414,0.0003268163709435612,0.0003190644201822579,0.0003104485513176769,0.0003025761980097741,0.0002951750939246267,0.0002888911694753915,0.0002819466753862798,0.00027503512683324516,0.00026880649966187775,0.0002624098560772836,0.00025627276045270264,0.00024989640223793685,0.00024506327463313937,0.00023992311616893858,0.00023403894738294184,0.00022876069124322385,0.0002238989545730874,0.0002187901845900342,0.00021428734180517495,0.00021007221948821098,0.0002058253448922187,0.00020117740496061742,0.00019711628556251526,0.00019326171604916453,0.0001894257584353909,0.00018551592074800283,0.0001818480232032016,0.0001778837468009442,0.00017422605014871806,0.00017115706577897072,0.00016737391706556082,0.00016441885964013636,0.00016131129814311862,0.00015836161037441343,0.00015565528883598745,0.00015224599337670952,0.00014954341168049723,0.00014656683197245002,0.00014381372602656484,0.00014144660963211209,0.00013869258691556752,0.00013605572166852653,0.0001336762070422992,0.00013141921954229474,0.0001292022643610835,0.00012677657650783658,0.00012476646224968135,0.0001226347521878779,0.00012027514458168298,0.00011816011101473123,0.00011621884914347902,0.00011450226156739518,0.00011235475540161133,0.00011066899605793878,0.00010864379146369174,0.00010708290938055143,0.00010524456592975184,0.00010356196435168386,0.00010172702604904771,0.00010011211998062208,9.848470654105768e-05,9.690182196209207e-05,9.529372618999332e-05,9.389466868015006e-05,9.224376844940707e-05,9.085953934118152e-05,8.96048077265732e-05,8.811481529846787e-05,8.678132144268602e-05,8.538670954294503e-05,8.40917055029422e-05,8.286602678708732e-05,8.158259879564866e-05,8.032705227378756e-05,7.912773435236886e-05,7.789767551003024e-05,7.677752728341147e-05,7.567821739939973e-05,7.455018203472719e-05,7.352059037657455e-05,7.240264676511288e-05,7.136347994673997e-05,7.026448292890564e-05,6.927751383045688e-05,6.82388708810322e-05,6.72510068397969e-05,6.633660814259201e-05,6.538978777825832e-05,6.444937753258273e-05,6.36195982224308e-05,6.264186231419444e-05,6.184149970067665e-05,6.1033922975184396e-05,6.0120077250758186e-05,5.92555406910833e-05,5.8456331316847354e-05,5.765131572843529e-05,5.686499935109168e-05,5.612000313703902e-05,5.535983291338198e-05,5.4635314882034436e-05,5.390217847889289e-05,5.317800969351083e-05,5.24461102031637e-05,5.17851221957244e-05,5.1072751375613734e-05,5.042005068389699e-05,4.975838237442076e-05,4.9148853577207774e-05,4.848041862715036e-05,4.783963959198445e-05,4.725963663076982e-05,4.662748324335553e-05,4.6000859583728015e-05,4.546327545540407e-05
8,4.037086009979248,2.725947618484497,2.5372467041015625,2.357416868209839,2.0950064659118652,1.7638157606124878,1.3658082485198975,0.9246721863746643,0.5504158735275269,0.2983371913433075,0.1550893783569336,0.07357822358608246,0.04138898104429245,0.023879405111074448,0.017142925411462784,0.013178108260035515,0.010727619752287865,0.009110531769692898,0.008032654412090778,0.0069482470862567425,0.006191191729158163,0.005472865886986256,0.0049696010537445545,0.00449258042499423,0.004050582181662321,0.003707882482558489,0.0033822269178926945,0.003117688000202179,0.0029234769754111767,0.0026724045164883137,0.002498611342161894,0.0023290980607271194,0.002170424209907651,0.0020376015454530716,0.0019106976687908173,0.001804847503080964,0.0017129079205915332,0.0015996237052604556,0.0015196012100204825,0.001435756916180253,0.0013596841599792242,0.0012882554437965155,0.0012252192245796323,0.0011659046867862344,0.0011106339516118169,0.0010595519561320543,0.0010113912867382169,0.0009680185467004776,0.0009257190977223217,0.0008904202841222286,0.0008543237927369773,0.0008195838308893144,0.000784113653935492,0.0007565183914266527,0.0007257769466377795,0.0006981109036132693,0.0006733550690114498,0.0006461615557782352,0.0006249132566154003,0.0006037582643330097,0.0005815361510030925,0.0005625206977128983,0.0005452039767988026,0.0005252647679299116,0.0005082470015622675,0.0004915713798254728,0.0004769104707520455,0.00046190136345103383,0.0004460824129637331,0.00043337640818208456,0.0004196690861135721,0.0004072560404893011,0.0003960329631809145,0.00038533296901732683,0.00037492834962904453,0.000362830120138824,0.00035307114012539387,0.00034381955629214644,0.0003350826445966959,0.00032519776141270995,0.00031723210122436285,0.0003084628551732749,0.00030084940954111516,0.0002925765875261277,0.00028568797279149294,0.00027872819919139147,0.00027156079886481166,0.0002649600792210549,0.000258255546214059,0.000251864519668743,0.000246095412876457,0.00024030052009038627,0.00023468089057132602,0.000229395751375705,0.00022407514916267246,0.0002191103994846344,0.00021384107822086662,0.0002095537493005395,0.00020492722978815436,0.00020060903625562787,0.00019665229774545878,0.00019156356574967504,0.00018769940652418882,0.00018433883087709546,0.00018007429025601596,0.00017648136417847127,0.00017273456614930183,0.00016916191088967025,0.00016598989896010607,0.00016255900845862925,0.00015913040260784328,0.0001564558333484456,0.00015296551282517612,0.00015013058145996183,0.00014710103278048337,0.00014430173905566335,0.00014155596727505326,0.00013907661195844412,0.00013637651863973588,0.00013396689610090107,0.00013151433086022735,0.00012897948909085244,0.00012660957872867584,0.00012419236009009182,0.00012216811592224985,0.00012006676115561277,0.00011772870493587106,0.00011584986350499094,0.00011371717118890956,0.00011183245806023479,0.00010984882828779519,0.0001080485453712754,0.00010597658547339961,0.00010427154484204948,0.00010250689228996634,0.00010085177200380713,9.908998617902398e-05,9.756496729096398e-05,9.588729153620079e-05,9.45100182434544e-05,9.290849266108125e-05,9.139166650129482e-05,8.984724263427779e-05,8.848471043165773e-05,8.723359496798366e-05,8.564473682781681e-05,8.440028614131734e-05,8.319059270434082e-05,8.166210318449885e-05,8.047747542150319e-05,7.910132990218699e-05,7.794984412612393e-05,7.680367707507685e-05,7.56467052269727e-05,7.445942901540548e-05,7.339051808230579e-05,7.223877037176862e-05,7.122116221580654e-05,7.012100832071155e-05,6.906429189257324e-05,6.801800918765366e-05,6.702229438815266e-05,6.609511183341965e-05,6.512607797048986e-05,6.421152647817507e-05,6.327118171611801e-05,6.23914020252414e-05,6.148472311906517e-05,6.0691163525916636e-05,5.9735975810326636e-05,5.887709994567558e-05,5.808056812384166e-05,5.733301441068761e-05,5.647475700243376e-05,5.570608482230455e-05,5.499440885614604e-05,5.417994543677196e-05,5.346150283003226e-05,5.276009324006736e-05,5.195990888751112e-05,5.129354030941613e-05,5.061007323092781e-05,4.9895003030542284e-05,4.927319605485536e-05,4.8594552936265245e-05,4.7963912948034704e-05,4.733149035018869e-05,4.6741679398110136e-05,4.613139390130527e-05,4.5531873183790594e-05,4.4924348912900314e-05,4.428308238857426e-05,4.374840500531718e-05,4.318094943300821e-05,4.260990317561664e-05,4.2043971916427836e-05,4.152915425947867e-05,4.103516766917892e-05,4.053331940667704e-05,3.996538362116553e-05
9,4.692600727081299,2.847794532775879,2.61212158203125,2.483175039291382,2.3162057399749756,2.0865511894226074,1.7728744745254517,1.4026583433151245,0.9745592474937439,0.5988186597824097,0.35707032680511475,0.17368528246879578,0.08289914578199387,0.04582018777728081,0.030716141685843468,0.020853383466601372,0.014680122956633568,0.011606200598180294,0.009898764081299305,0.008438578806817532,0.00723273353651166,0.0065604886040091515,0.005770742893218994,0.005171501077711582,0.004645509645342827,0.004233550280332565,0.003878186224028468,0.0035694395191967487,0.0032654437236487865,0.003016389673575759,0.0028111934661865234,0.0026081097312271595,0.0024414239451289177,0.002298627747222781,0.0021678765770047903,0.0020198808051645756,0.0018947315402328968,0.0017930889734998345,0.0016918567707762122,0.0015989189269021153,0.001513119786977768,0.0014336900785565376,0.001357058179564774,0.0012997844023630023,0.0012431616196408868,0.0011841001687571406,0.0011311342241242528,0.001074865460395813,0.0010286268079653382,0.0009858920238912106,0.0009463136084377766,0.0009086912032216787,0.0008724593208171427,0.0008364269160665572,0.0008022549445740879,0.0007731678779236972,0.0007466106908395886,0.000720465846825391,0.0006943910848349333,0.0006691883900202811,0.0006462484016083181,0.0006239954964257777,0.0006029582000337541,0.0005831021117046475,0.0005626545753329992,0.0005451031029224396,0.0005318704061210155,0.0005111490609124303,0.0004966655978932977,0.00048151431838050485,0.000469128048280254,0.000456420035334304,0.00044052096200175583,0.0004290139477234334,0.00041544155101291835,0.000403047539293766,0.00039188560913316905,0.00038215203676372766,0.00037060293834656477,0.0003619489725679159,0.00035182147985324264,0.0003428243799135089,0.0003337904636282474,0.0003255387127865106,0.00031754214433021843,0.0003088040684815496,0.00030170477111823857,0.00029444493702612817,0.0002874550991691649,0.0002801524242386222,0.00027360726380720735,0.0002672620175871998,0.00026066755526699126,0.0002549295895732939,0.00024907715851441026,0.0002438094379613176,0.00023835652973502874,0.00023328044335357845,0.0002279696927871555,0.00022253647330217063,0.00021733890753239393,0.00021279594511725008,0.00020834794850088656,0.00020372752624098212,0.0001998665975406766,0.00019561074441298842,0.0001913730811793357,0.00018779750098474324,0.00018385784642305225,0.00018043344607576728,0.00017650490917731076,0.00017282941553276032,0.0001695834653219208,0.0001662436843616888,0.0001629561447771266,0.00015987046936061233,0.00015697044727858156,0.00015371358313132077,0.00015117129078134894,0.00014805240789428353,0.000145271114888601,0.00014285977522376925,0.00014003000978846103,0.00013742214650847018,0.00013489807315636426,0.0001326324709225446,0.00013042434875387698,0.00012801143748220056,0.00012574016000144184,0.000123655452625826,0.00012129674723837525,0.00011924644786631688,0.0001172461052192375,0.000115242313768249,0.00011354899470461532,0.0001113682592404075,0.00010963105887640268,0.0001075826003216207,0.00010581494279904291,0.00010425379150547087,0.00010256020323140547,0.00010097809717990458,9.928179497364908e-05,9.764692367753014e-05,9.597786993253976e-05,9.442111331736669e-05,9.304404375143349e-05,9.15725904633291e-05,9.004949242807925e-05,8.873389742802829e-05,8.732081187190488e-05,8.603428432252258e-05,8.463230187771842e-05,8.329163392772898e-05,8.208555664168671e-05,8.084977162070572e-05,7.948931306600571e-05,7.844172068871558e-05,7.7299919212237e-05,7.617755909450352e-05,7.50229082768783e-05,7.389307575067505e-05,7.279072451638058e-05,7.175003702286631e-05,7.071428990457207e-05,6.980817124713212e-05,6.863000453449786e-05,6.765717262169346e-05,6.669371941825375e-05,6.582865898963064e-05,6.487622886197641e-05,6.391256465576589e-05,6.302106339717284e-05,6.21223880443722e-05,6.119908357504755e-05,6.044021210982464e-05,5.95693381910678e-05,5.879240052308887e-05,5.793856325908564e-05,5.7106844906229526e-05,5.6327222409890965e-05,5.5622713261982426e-05,5.4763069783803076e-05,5.404249168350361e-05,5.327672988642007e-05,5.254331335891038e-05,5.186791531741619e-05,5.120679270476103e-05,5.047358354204334e-05,4.98335029988084e-05,4.9176309403264895e-05,4.8514906666241586e-05,4.791848550667055e-05,4.7271023504436016e-05,4.669501868193038e-05,4.6045894123381004e-05,4.551425081444904e-05,4.486609032028355e-05,4.4280157453613356e-05,4.367117799120024e-05
10,4.401282787322998,2.766866445541382,2.5751683712005615,2.423189878463745,2.227607250213623,1.9594296216964722,1.617584228515625,1.1900732517242432,0.8263348937034607,0.47863510251045227,0.26001429557800293,0.14487327635288239,0.0667654275894165,0.037860266864299774,0.023756984621286392,0.017599357292056084,0.014005833305418491,0.011491660960018635,0.009612959809601307,0.008260826580226421,0.0072097210213541985,0.0064736632630229,0.005747789051383734,0.005170890130102634,0.004670785740017891,0.004278701264411211,0.003924766555428505,0.003616000758484006,0.0033229694236069918,0.00310573005117476,0.002878992585465312,0.00269528292119503,0.0025113385636359453,0.002343561965972185,0.002202813746407628,0.0020660629961639643,0.0019551729783415794,0.0018408142495900393,0.0017367011168971658,0.001642873976379633,0.0015537389554083347,0.0014812261797487736,0.0014117986429482698,0.001342558185569942,0.001283143414184451,0.0012247744016349316,0.0011600600555539131,0.0011101311538368464,0.0010678676189854741,0.0010246534366160631,0.0009863590821623802,0.0009410056518390775,0.0009016725816763937,0.0008643948240205646,0.0008378431084565818,0.0008012328762561083,0.0007729468052275479,0.0007461525965481997,0.0007183294510468841,0.0006922599859535694,0.0006690922891721129,0.0006444889586418867,0.0006243851967155933,0.0006060998421162367,0.0005860004457645118,0.0005650375387631357,0.0005469091702252626,0.0005297671887092292,0.0005133128724992275,0.000499839021358639,0.0004836575535591692,0.00046941431355662644,0.00045624954509548843,0.00044286547927185893,0.0004299373540561646,0.0004195108776912093,0.00040715860086493194,0.0003948946250602603,0.0003848604974336922,0.0003750301548279822,0.00036510624340735376,0.0003549148968886584,0.00034590292489156127,0.000337221339577809,0.00032855532481335104,0.00032076810020953417,0.00031287301681004465,0.0003052758693229407,0.00029727700166404247,0.00029089112649671733,0.00028339901473373175,0.00027732070884667337,0.000270494376309216,0.0002649750094860792,0.0002588115748949349,0.0002525051822885871,0.00024671468418091536,0.00024172605480998755,0.0002364159736316651,0.00023094983771443367,0.00022608155268244445,0.00022120571520645171,0.00021625075896736234,0.00021200069750193506,0.00020812588627450168,0.00020322327327448875,0.00019923783838748932,0.00019506436365190893,0.00019106041872873902,0.00018744381668511778,0.00018351816106587648,0.000180070725036785,0.00017643194587435573,0.00017349199333693832,0.00016961184155661613,0.00016693482757546008,0.00016331730876117945,0.00016028311802074313,0.00015742173127364367,0.00015451470972038805,0.00015150851686485112,0.0001486554101575166,0.00014620114234276116,0.0001436068705515936,0.00014061892579775304,0.000138355593662709,0.00013579301594290882,0.0001333780528511852,0.00013101240620017052,0.0001287903869524598,0.00012653171143028885,0.00012439399142749608,0.0001225320011144504,0.00012036393309244886,0.00011823793465737253,0.00011618578719208017,0.0001144554844358936,0.00011229779192944989,0.00011055586946895346,0.00010876594024011865,0.00010697868128772825,0.00010524453682592139,0.00010367870709160343,0.00010195962386205792,0.00010034460137831047,9.865403262665495e-05,9.708210563985631e-05,9.565000073052943e-05,9.418214904144406e-05,9.275875345338136e-05,9.12472969503142e-05,9.001676517073065e-05,8.847644494380802e-05,8.716319280210882e-05,8.572485239710659e-05,8.456619980279356e-05,8.323886140715331e-05,8.199227158911526e-05,8.075279038166627e-05,7.958152855280787e-05,7.844412903068587e-05,7.727349293418229e-05,7.609064050484449e-05,7.500677020289004e-05,7.40026225685142e-05,7.284687308128923e-05,7.189220195868984e-05,7.075601752148941e-05,6.982376362429932e-05,6.889659562148154e-05,6.787466554669663e-05,6.693776958854869e-05,6.592900899704546e-05,6.511538231279701e-05,6.412793300114572e-05,6.331491022137925e-05,6.241942173801363e-05,6.152328569442034e-05,6.070200106478296e-05,5.983719529467635e-05,5.911543848924339e-05,5.8254085161024705e-05,5.7514189393259585e-05,5.671014150721021e-05,5.598831921815872e-05,5.5234973842743784e-05,5.4541298595722765e-05,5.381408118410036e-05,5.3099371143616736e-05,5.2435632824199274e-05,5.170766598894261e-05,5.104937372379936e-05,5.038983726990409e-05,4.977576099918224e-05,4.908552728011273e-05,4.854814687860198e-05,4.7868819819996133e-05,4.7259367420338094e-05,4.663852450903505e-05,4.6108601964078844e-05
11,4.212281227111816,2.7483890056610107,2.570498466491699,2.3869900703430176,2.183462142944336,1.8712701797485352,1.4975852966308594,1.0346037149429321,0.6628178954124451,0.36292263865470886,0.15630747377872467,0.07505436986684799,0.0403558574616909,0.025258691981434822,0.017487190663814545,0.013505236245691776,0.011054735630750656,0.009448105469346046,0.007939760573208332,0.006762837991118431,0.00595597829669714,0.005308098625391722,0.004747913219034672,0.004302147775888443,0.003925312776118517,0.0035341978073120117,0.003263985738158226,0.0030180783942341805,0.0027836805675178766,0.0025827502831816673,0.002400260651484132,0.0022297075483947992,0.002084968611598015,0.001969480188563466,0.001831557834520936,0.0017255559796467423,0.0016331205843016505,0.0015383383724838495,0.0014525452861562371,0.001375350053422153,0.0013109974097460508,0.0012383419089019299,0.0011759026674553752,0.0011219718726351857,0.001069659716449678,0.001020775642246008,0.0009748186566866934,0.0009350188774988055,0.0008920130785554647,0.0008603810565546155,0.0008233201806433499,0.0007900275522843003,0.0007594111375510693,0.0007295108516700566,0.0007014896254986525,0.0006738668889738619,0.0006511755636893213,0.0006297212676145136,0.0006057773134671152,0.0005837543285451829,0.0005634781555272639,0.0005451164324767888,0.0005260520265437663,0.0005100311827845871,0.0004932759911753237,0.0004775166744366288,0.0004616428632289171,0.0004479361523408443,0.00043564289808273315,0.0004225892771501094,0.0004091639711987227,0.0003960974281653762,0.0003857844276353717,0.00037449406227096915,0.0003634256136137992,0.0003538711171131581,0.0003438581479713321,0.00033504594466648996,0.0003267026331741363,0.0003169254050590098,0.0003084023774135858,0.0003005141334142536,0.0002929984184447676,0.00028546235989779234,0.0002783664967864752,0.0002716889139264822,0.00026565795997157693,0.0002589354699011892,0.0002523781731724739,0.00024666363606229424,0.00024114576808642596,0.00023551436606794596,0.00022962575894780457,0.00022464452194981277,0.00021943479077890515,0.00021483727323357016,0.0002100522251566872,0.00020524000865407288,0.0002006727590924129,0.00019626801076810807,0.00019232043996453285,0.0001878379116533324,0.0001843015052145347,0.00018018273112829775,0.00017662688333075494,0.00017338749603368342,0.00016956841864157468,0.00016657989181112498,0.0001629146427148953,0.00015970041567925364,0.0001565831043990329,0.00015335359785240144,0.000150305189890787,0.00014779012417420745,0.00014469839516095817,0.0001418608007952571,0.0001393150887452066,0.00013665753067471087,0.0001341283496003598,0.00013191663310863078,0.0001292875240324065,0.00012703333050012589,0.0001245421590283513,0.00012258447532076389,0.00012014981621177867,0.0001180977196781896,0.00011612445814535022,0.00011399917275412008,0.00011192616511834785,0.00010998264042427763,0.00010812634718604386,0.00010634717182256281,0.00010451570415170863,0.00010277982073603198,0.00010095025936607271,9.930476517183706e-05,9.768483141670004e-05,9.615932503947988e-05,9.439962013857439e-05,9.299958765041083e-05,9.153621067525819e-05,8.994703239295632e-05,8.862119284458458e-05,8.718563185539097e-05,8.577955304645002e-05,8.454130875179544e-05,8.311496640089899e-05,8.175734546966851e-05,8.055660873651505e-05,7.92269638623111e-05,7.805838686181232e-05,7.688960613450035e-05,7.564099360024557e-05,7.455946615664288e-05,7.337509305216372e-05,7.23107295925729e-05,7.123933028196916e-05,7.013558206381276e-05,6.92006287863478e-05,6.809658952988684e-05,6.714811752317473e-05,6.614272570004687e-05,6.525970093207434e-05,6.419677811209112e-05,6.331742042675614e-05,6.238244532141834e-05,6.14653472439386e-05,6.0615297115873545e-05,5.973578299744986e-05,5.892828994547017e-05,5.805809632875025e-05,5.725680603063665e-05,5.648152728099376e-05,5.571348447119817e-05,5.494516881299205e-05,5.417775173555128e-05,5.343446900951676e-05,5.269298344501294e-05,5.202041211305186e-05,5.1311686547705904e-05,5.065884761279449e-05,4.9882732128025964e-05,4.922891821479425e-05,4.8586145567242056e-05,4.791873652720824e-05,4.7287900088122115e-05,4.67153440695256e-05,4.602179615176283e-05,4.544329931377433e-05,4.489407001528889e-05,4.422548590810038e-05,4.368466397863813e-05,4.3161013309145346e-05,4.254278974258341e-05,4.1991686885012314e-05,4.15424037782941e-05,4.101227023056708e-05,4.050338247907348e-05,3.9918340917211026e-05,3.940448732464574e-05
12,4.1529717445373535,2.727513551712036,2.5342819690704346,2.3537046909332275,2.100931406021118,1.74519944190979,1.3103783130645752,0.9050002694129944,0.5241118669509888,0.2712523937225342,0.1346885710954666,0.06816590577363968,0.035596154630184174,0.022131025791168213,0.016167709603905678,0.012749613262712955,0.010362987406551838,0.00865235086530447,0.007358950562775135,0.006539186462759972,0.005869682878255844,0.005171468015760183,0.004649961832910776,0.004224633332341909,0.0038674178067594767,0.0035201245918869972,0.003269848180934787,0.0030353302136063576,0.0027783322148025036,0.0025987562257796526,0.002395709976553917,0.002254159189760685,0.002103051170706749,0.0019734397064894438,0.0018576211296021938,0.0017522054258733988,0.00165179546456784,0.0015654097078368068,0.0014856042107567191,0.001403689500875771,0.001328644109889865,0.0012663074303418398,0.0012082986067980528,0.001152100507169962,0.0011007109424099326,0.0010500719072297215,0.001003405312076211,0.0009611822897568345,0.0009205389651469886,0.0008863084367476404,0.0008497653179802,0.0008141894359141588,0.0007841656915843487,0.0007503782398998737,0.0007227851892821491,0.0006990390829741955,0.0006731511675752699,0.000648709072265774,0.0006250162259675562,0.0006033162935636938,0.0005853661568835378,0.0005674330168403685,0.000545718998182565,0.0005287702078931034,0.0005108244949951768,0.000495482818223536,0.00047987865400500596,0.0004661132988985628,0.00044998092926107347,0.00043734131031669676,0.00042445011786185205,0.0004131656314712018,0.00040090319816954434,0.00038868101546540856,0.0003784058499149978,0.00036906995228491724,0.0003580044722184539,0.0003494255361147225,0.00034016347490251064,0.0003302103141322732,0.00032162456773221493,0.00031304993899539113,0.00030580072780139744,0.00029739041929133236,0.00029004531097598374,0.0002830214216373861,0.00027599430177360773,0.00027016227249987423,0.00026395899476483464,0.00025753825320862234,0.00025020414614118636,0.0002451634791214019,0.00023974319628905505,0.00023415063333231956,0.000228913122555241,0.00022384313342627138,0.00021888989431317896,0.00021424665465019643,0.00020946528820786625,0.00020498663070611656,0.00020055809000041336,0.00019655197684187442,0.0001921771909110248,0.00018810719484463334,0.0001843473728513345,0.00018048525089398026,0.00017670876695774496,0.00017312171985395253,0.00016992287419270724,0.00016643095295876265,0.00016368197975680232,0.0001601645490154624,0.0001572402979945764,0.0001537944917799905,0.00015077496937010437,0.0001480072533013299,0.00014526647282764316,0.00014255406858865172,0.00013989488070365041,0.0001371839753119275,0.0001347824581898749,0.00013240728003438562,0.00012990178947802633,0.0001273535017389804,0.00012526047066785395,0.0001229759509442374,0.00012083436013199389,0.00011894416093127802,0.00011674473353195935,0.00011478165833977982,0.00011270286631770432,0.0001107221469283104,0.00010886195377679542,0.00010712071525631472,0.00010528304119361565,0.00010352136450819671,0.00010183103586314246,0.0001001139244181104,9.854026575339958e-05,9.693187894299626e-05,9.531447722110897e-05,9.370497718919069e-05,9.22200852073729e-05,9.072259126696736e-05,8.946256275521591e-05,8.811904262984172e-05,8.651304960949346e-05,8.53394521982409e-05,8.391768642468378e-05,8.253251144196838e-05,8.132372749969363e-05,8.013770275283605e-05,7.894689770182595e-05,7.762369205011055e-05,7.638613897142932e-05,7.529301365138963e-05,7.417659071506932e-05,7.313837704714388e-05,7.200255640782416e-05,7.09066734998487e-05,6.991288682911545e-05,6.880106229800731e-05,6.790134648326784e-05,6.681063678115606e-05,6.594721344299614e-05,6.491312524303794e-05,6.397865217877552e-05,6.311383913271129e-05,6.215860048541799e-05,6.126274820417166e-05,6.0485741414595395e-05,5.964217780274339e-05,5.873038753634319e-05,5.795013203169219e-05,5.717437670682557e-05,5.636695277644321e-05,5.564305683947168e-05,5.4829357395647094e-05,5.409966979641467e-05,5.335377136361785e-05,5.262449849396944e-05,5.1909428293583915e-05,5.1273756980663165e-05,5.051779226050712e-05,4.9830043280962855e-05,4.921059007756412e-05,4.8542977310717106e-05,4.792580512003042e-05,4.72501887998078e-05,4.666286986321211e-05,4.606872607837431e-05,4.5454580686055124e-05,4.4909822463523597e-05,4.4328644435154274e-05,4.3690419261110947e-05,4.31624248449225e-05,4.25866965088062e-05,4.205194636597298e-05,4.1524574044160545e-05,4.1016781324287876e-05
13,4.135725021362305,2.7272393703460693,2.558788537979126,2.403367519378662,2.1889805793762207,1.8515524864196777,1.462135910987854,1.02629816532135,0.6295910477638245,0.3554481565952301,0.18501412868499756,0.08390314131975174,0.04306631535291672,0.026893258094787598,0.017545359209179878,0.012717481702566147,0.010155593045055866,0.008573858067393303,0.007454364560544491,0.006436679046601057,0.005740233231335878,0.005083473399281502,0.004607797134667635,0.004175273235887289,0.003804030129685998,0.0034426688216626644,0.0031839231960475445,0.0029316600412130356,0.0027117133140563965,0.0025217547081410885,0.002371665323153138,0.0022214618511497974,0.002073820447549224,0.0019341016886755824,0.00182783929631114,0.0017200300935655832,0.0016276473179459572,0.0015327985165640712,0.0014495252398774028,0.0013728819321841002,0.0013062687357887626,0.0012432357762008905,0.001185181550681591,0.0011313436552882195,0.0010780045995488763,0.0010280399583280087,0.0009829141199588776,0.0009397949906997383,0.0009033148526214063,0.0008665084606036544,0.0008324033115059137,0.0007989737205207348,0.000768603349570185,0.0007368451915681362,0.0007091912557370961,0.0006844624876976013,0.000660090590827167,0.0006357580423355103,0.0006140187615528703,0.0005935155786573887,0.0005731351557187736,0.0005545198800973594,0.0005365492543205619,0.0005195270059630275,0.0005028247251175344,0.000486883771372959,0.00047199553227983415,0.0004583935078699142,0.00044484256068244576,0.0004315247933845967,0.00041773883276619017,0.0004071919829584658,0.00039473356446251273,0.0003851996152661741,0.0003737379447557032,0.0003625998506322503,0.0003526652872096747,0.00034374656388536096,0.00033491503563709557,0.00032605789601802826,0.0003177639446221292,0.0003090163227170706,0.00030160509049892426,0.000293597811833024,0.0002862968249246478,0.00027940128347836435,0.000272531557129696,0.00026629309286363423,0.00025986554101109505,0.00025412123068235815,0.0002482029958628118,0.00024242553627118468,0.00023725350911263376,0.00023183858138509095,0.00022635882487520576,0.0002214039850514382,0.00021631298295687884,0.00021199848561082035,0.000207378514460288,0.00020263368787709624,0.00019844196503981948,0.00019452358537819237,0.00019020283070858568,0.00018630649719852954,0.00018262384401168674,0.00017859101353678852,0.00017546011076774448,0.00017158992704935372,0.00016822978795971721,0.00016489696281496435,0.00016175983182620257,0.00015862628060858697,0.0001553835900267586,0.0001525728584965691,0.00014963446301408112,0.00014680494496133178,0.00014384927635546774,0.00014146458124741912,0.00013880987535230815,0.0001363810442853719,0.00013366220809984952,0.000131433000206016,0.00012900462024845183,0.0001267798215849325,0.00012441075523383915,0.0001221051934408024,0.00012004357267869636,0.00011790037387982011,0.00011601652659010142,0.00011388255370547995,0.00011197991261724383,0.00010999142250511795,0.00010816963185789064,0.00010647461022017524,0.00010461333295097575,0.0001029253180604428,0.00010116140765603632,9.946905629476532e-05,9.791306365514174e-05,9.618696640245616e-05,9.466767369303852e-05,9.321202378487214e-05,9.177172614727169e-05,9.024724568007514e-05,8.878827793523669e-05,8.741794590605423e-05,8.605058974353597e-05,8.461460674880072e-05,8.337822509929538e-05,8.207646169466898e-05,8.082892600214109e-05,7.953520980663598e-05,7.84022849984467e-05,7.71785998949781e-05,7.599576929351315e-05,7.489222480216995e-05,7.38228191039525e-05,7.271562935784459e-05,7.160491804825142e-05,7.057236507534981e-05,6.949462840566412e-05,6.854372622910887e-05,6.75720875733532e-05,6.652613228652626e-05,6.55884068692103e-05,6.464379112003371e-05,6.375953671522439e-05,6.278821820160374e-05,6.189531995914876e-05,6.108934758231044e-05,6.03177395532839e-05,5.937567038927227e-05,5.848973887623288e-05,5.76950769755058e-05,5.689751560566947e-05,5.6115055485861376e-05,5.535246236831881e-05,5.4603882745141163e-05,5.3847772505832836e-05,5.315788439475e-05,5.24228198628407e-05,5.171078737475909e-05,5.107456672703847e-05,5.034494824940339e-05,4.9716109060682356e-05,4.902525324723683e-05,4.836047810385935e-05,4.7786332288524136e-05,4.716204057331197e-05,4.651623748941347e-05,4.593078119796701e-05,4.531745798885822e-05,4.477201946428977e-05,4.4167525629745796e-05,4.36786467616912e-05,4.306331175030209e-05,4.247648030286655e-05,4.1964489355450496e-05,4.139842349104583e-05,4.0869388612918556e-05
14,4.857787132263184,2.8680026531219482,2.6526386737823486,2.5385899543762207,2.4042646884918213,2.2204530239105225,1.9724167585372925,1.621399998664856,1.2127766609191895,0.8188170194625854,0.49426501989364624,0.26788049936294556,0.13560695946216583,0.0645413026213646,0.03666258603334427,0.023237403482198715,0.016054188832640648,0.012436099350452423,0.01021659467369318,0.008556350134313107,0.007396658416837454,0.006409571040421724,0.005749487318098545,0.005142053123563528,0.004570442717522383,0.004158509895205498,0.0038045828696340322,0.00344745977781713,0.003166520968079567,0.0029483498074114323,0.002713837195187807,0.0025159541983157396,0.0023544449359178543,0.0021869135089218616,0.002053667325526476,0.001923582749441266,0.0018145584035664797,0.0017188285710290074,0.001622762531042099,0.0015364837599918246,0.0014564415905624628,0.0013755513355135918,0.0013086189283058047,0.0012440941063687205,0.0011815258767455816,0.001127198338508606,0.0010780959855765104,0.001030762679874897,0.0009883827297016978,0.0009466013289056718,0.000905862427316606,0.0008662064210511744,0.0008337079780176282,0.0008039626991376281,0.0007721298024989665,0.0007415487198159099,0.0007110642618499696,0.0006853044615127146,0.0006601768545806408,0.0006371086928993464,0.0006154563161544502,0.0005940269911661744,0.0005744389491155744,0.0005542003782466054,0.0005366529803723097,0.0005204229382798076,0.0005022960831411183,0.00048748351400718093,0.0004724362806882709,0.00045766463153995574,0.0004453331930562854,0.0004310818330850452,0.0004179581883363426,0.00040706072468310595,0.00039602399920113385,0.000384111306630075,0.00037372446968220174,0.0003627931291703135,0.0003534464631229639,0.00034409805084578693,0.00033507103216834366,0.0003263681719545275,0.00031869582016952336,0.0003104029456153512,0.00030263327062129974,0.0002943761646747589,0.0002874104829970747,0.0002805921249091625,0.00027387452428229153,0.0002669000532478094,0.0002605260815471411,0.0002542466390877962,0.0002484107681084424,0.00024241946812253445,0.0002374198957113549,0.00023166359460446984,0.00022640108363702893,0.0002217542933067307,0.00021707818086724728,0.00021200288028921932,0.00020724030036944896,0.0002028217859333381,0.00019859059830196202,0.00019445360521785915,0.00019072549184784293,0.00018660443311091512,0.00018269037536811084,0.00017891924653667957,0.00017544973525218666,0.0001720809523249045,0.00016866032092366368,0.00016538560157641768,0.00016214062634389848,0.00015861756401136518,0.0001556661882204935,0.00015269154391717166,0.00014985490997787565,0.0001472863368690014,0.00014444680709857494,0.0001414543658029288,0.00013895731535740197,0.00013642979320138693,0.0001339760929113254,0.00013143470278009772,0.0001292968518100679,0.00012676756887231022,0.0001245112798642367,0.00012253032764419913,0.00012032334780087695,0.00011814182653324679,0.00011617471318459138,0.00011408786667743698,0.00011217482824577019,0.00011031102621927857,0.00010855331493075937,0.00010661875421646982,0.00010496767208678648,0.00010313017264707014,0.00010143532563233748,9.973439591703936e-05,9.822589345276356e-05,9.648260311223567e-05,9.50625108089298e-05,9.348079038318247e-05,9.194212179863825e-05,9.039785800268874e-05,8.909069583751261e-05,8.765705570112914e-05,8.628344221506268e-05,8.499485556967556e-05,8.360094943782315e-05,8.240373426815495e-05,8.108183101285249e-05,7.983138493727893e-05,7.873674621805549e-05,7.751741213724017e-05,7.62651179684326e-05,7.521813677158207e-05,7.408736564684659e-05,7.300492143258452e-05,7.192269549705088e-05,7.082848605932668e-05,6.985077197896317e-05,6.876508268760517e-05,6.783523713238537e-05,6.685625703539699e-05,6.587785901501775e-05,6.491648673545569e-05,6.410678179236129e-05,6.31085058557801e-05,6.220106297405437e-05,6.13812226220034e-05,6.050531010259874e-05,5.974141095066443e-05,5.889281237614341e-05,5.81102904106956e-05,5.728147880290635e-05,5.653296102536842e-05,5.57125749764964e-05,5.491010961122811e-05,5.4185529734240845e-05,5.351737854653038e-05,5.276382580632344e-05,5.210269955568947e-05,5.142985173733905e-05,5.067698657512665e-05,5.00925634696614e-05,4.935612014378421e-05,4.8731013521319255e-05,4.809644087799825e-05,4.748311766888946e-05,4.6839864808134735e-05,4.627228918252513e-05,4.563777838484384e-05,4.503970922087319e-05,4.4461838115239516e-05,4.391460242914036e-05,4.3351290514692664e-05,4.2816405766643584e-05,4.226930468576029e-05
15,4.614739418029785,2.7835495471954346,2.606804370880127,2.4745867252349854,2.2925593852996826,2.0403850078582764,1.7155168056488037,1.3239258527755737,0.8881996870040894,0.5697970390319824,0.2801072597503662,0.15588071942329407,0.08442207425832748,0.048928000032901764,0.030397018417716026,0.01976977288722992,0.014446421526372433,0.011524646542966366,0.009264636784791946,0.008000334724783897,0.006901256274431944,0.006115176249295473,0.005478810053318739,0.00500379828736186,0.004532358143478632,0.004113104660063982,0.0037247613072395325,0.003442385932430625,0.0031659025698900223,0.0029555854853242636,0.002753232605755329,0.002538918051868677,0.0023822535295039415,0.0022351432126015425,0.0021086896304041147,0.0019761163275688887,0.0018522903556004167,0.001752877258695662,0.0016578497597947717,0.001573806395754218,0.0014912711922079325,0.0014117860700935125,0.001350659062154591,0.0012750014429911971,0.00121855188626796,0.0011602205922827125,0.0011133217485621572,0.0010595866478979588,0.0010211348999291658,0.000977098592557013,0.0009350615437142551,0.0008965997840277851,0.0008605760522186756,0.0008288405952043831,0.0007953706663101912,0.0007680033450014889,0.0007405547075904906,0.0007109947619028389,0.0006848335615359247,0.0006627695984207094,0.000640100974123925,0.0006188616971485317,0.0005970853380858898,0.0005797076737508178,0.0005585711332969368,0.0005439472151920199,0.0005235932185314596,0.0005082023562863469,0.0004919565399177372,0.00047840108163654804,0.0004633846983779222,0.0004497177724260837,0.0004364571941550821,0.00042317746556364,0.0004123706603422761,0.00040138515760190785,0.00038989915628917515,0.0003788556205108762,0.0003681088564917445,0.00035903474781662226,0.0003495799901429564,0.0003405838506296277,0.0003318129456602037,0.0003242622478865087,0.00031532192951999605,0.00030732128652743995,0.00030034611700102687,0.0002923462598118931,0.0002851606986951083,0.00027863599825650454,0.00027233039145357907,0.0002658312441781163,0.0002594672259874642,0.0002536653191782534,0.00024818506790325046,0.00024264625972136855,0.00023712580150458962,0.00023245401098392904,0.00022703295690007508,0.0002216857101302594,0.0002172009990317747,0.00021232479775790125,0.0002077623357763514,0.00020366135868243873,0.00019995200273115188,0.00019517706823535264,0.00019142146629747003,0.00018714817997533828,0.00018328346777707338,0.00018007197650149465,0.00017640380247030407,0.00017291985568590462,0.00016967124247457832,0.00016637078078929335,0.00016303552547469735,0.00015970652748364955,0.00015683025412727147,0.00015395857917610556,0.00015097908908501267,0.00014850302250124514,0.00014531619672197849,0.00014300976181402802,0.0001402389898430556,0.00013766434858553112,0.0001351947576040402,0.0001328090438619256,0.00013058677723165601,0.00012816542584914714,0.00012602031347341835,0.0001239303092006594,0.00012168426474090666,0.00011960864503635094,0.00011757628089981154,0.00011577903933357447,0.00011386430560378358,0.00011154586536576971,0.00010975969053106382,0.00010790419037221,0.00010623330308590084,0.00010452678543515503,0.00010304737952537835,0.0001009941115626134,9.947843500413e-05,9.791975026018918e-05,9.629190026316792e-05,9.489046351518482e-05,9.326321742264554e-05,9.19396843528375e-05,9.036753908731043e-05,8.906985749490559e-05,8.767613326199353e-05,8.615482511231676e-05,8.48839117679745e-05,8.360008359886706e-05,8.22937727207318e-05,8.107276516966522e-05,7.989757432369515e-05,7.876549352658913e-05,7.752043893560767e-05,7.638963870704174e-05,7.53870845073834e-05,7.41507756174542e-05,7.310132059501484e-05,7.195233047241345e-05,7.097584602888674e-05,7.000039477134123e-05,6.898770516272634e-05,6.796383968321607e-05,6.71053712721914e-05,6.600334745598957e-05,6.510633829748258e-05,6.419517012545839e-05,6.33151939837262e-05,6.242767994990572e-05,6.164937076391652e-05,6.072034011594951e-05,5.991153739159927e-05,5.907956074224785e-05,5.825345215271227e-05,5.748561306972988e-05,5.672315091942437e-05,5.592726665781811e-05,5.518081525224261e-05,5.445913120638579e-05,5.3662526624975726e-05,5.297781899571419e-05,5.232622061157599e-05,5.162321758689359e-05,5.092182254884392e-05,5.024958591093309e-05,4.956314660375938e-05,4.897472899756394e-05,4.835120853385888e-05,4.768952203448862e-05,4.712932059192099e-05,4.6454610128421336e-05,4.587605144479312e-05,4.527252895059064e-05,4.473281296668574e-05,4.417467425810173e-05
16,4.807674884796143,2.839864492416382,2.5900256633758545,2.4263551235198975,2.221259593963623,1.9642877578735352,1.6023093461990356,1.1736479997634888,0.7876370549201965,0.4681380093097687,0.2337014228105545,0.13014335930347443,0.062285806983709335,0.03626830130815506,0.02335852012038231,0.016477065160870552,0.013048302382230759,0.010832141153514385,0.009178630076348782,0.008061016909778118,0.007015962619334459,0.006333314348012209,0.005661489441990852,0.005085950251668692,0.004569683689624071,0.004134552553296089,0.003787236986681819,0.0035262824967503548,0.00323776644654572,0.0030045676976442337,0.002771413419395685,0.002594776451587677,0.0024318534415215254,0.002291632816195488,0.002140961354598403,0.002013449789956212,0.0018981349421665072,0.0017924278508871794,0.0016870050458237529,0.0016008861130103469,0.0015139897586777806,0.0014353508595377207,0.001369866426102817,0.0013063788646832108,0.0012437934055924416,0.0011846065754070878,0.0011316833551973104,0.0010848052334040403,0.001042430754750967,0.0009970208629965782,0.0009556915611028671,0.0009132756385952234,0.0008773605222813785,0.000845191883854568,0.0008134257514029741,0.000781673879828304,0.0007530696457251906,0.0007257640827447176,0.0007011228590272367,0.0006761795375496149,0.0006522909388877451,0.0006331019685603678,0.0006096349679864943,0.0005898909294046462,0.0005725303199142218,0.0005518097314052284,0.0005347505793906748,0.0005187491769902408,0.0005024179699830711,0.0004881864879280329,0.00047359708696603775,0.0004600111860781908,0.0004460647760424763,0.00043403569725342095,0.00042196360300295055,0.00040993670700117946,0.00039836150244809687,0.00038673257222399116,0.0003773206553887576,0.0003669503494165838,0.000357954966602847,0.00034753739601001143,0.00033914318191818893,0.00033006301964633167,0.00032207739423029125,0.0003140988992527127,0.0003063248877879232,0.00029906921554356813,0.0002919945982284844,0.00028471843688748777,0.00027812609914690256,0.00027130174566991627,0.0002656727156136185,0.00025956041645258665,0.00025350548094138503,0.0002473743516020477,0.00024231635325122625,0.00023765135847497731,0.00023194545065052807,0.00022676924709230661,0.0002219462621724233,0.00021711549197789282,0.00021255873434711248,0.00020800957281608135,0.00020391262660268694,0.00019950748537667096,0.00019540771609172225,0.00019125634571537375,0.00018777155491989106,0.00018376826483290642,0.00018019879644270986,0.00017678376752883196,0.00017329280672129244,0.00016977451741695404,0.0001666405441937968,0.0001635437656659633,0.00016050673730205745,0.00015751327737234533,0.0001544560946058482,0.0001516780466772616,0.0001488877460360527,0.0001461948559153825,0.000143465687870048,0.00014094167272560298,0.00013834721175953746,0.00013590148591902107,0.00013364217011258006,0.00013126192789059132,0.00012901493755634874,0.00012668436102103442,0.00012453191448003054,0.00012222871009726077,0.00012044681352563202,0.00011827010894194245,0.00011634165275609121,0.00011454391642473638,0.00011251960677327588,0.00011054764763684943,0.00010884626681217924,0.00010703886073315516,0.00010528252460062504,0.0001037529727909714,0.00010197778465226293,0.00010031288547907025,9.883981692837551e-05,9.708041761768982e-05,9.564257197780535e-05,9.41156322369352e-05,9.265074913855642e-05,9.127840894507244e-05,8.993587834993377e-05,8.848928700899705e-05,8.724139479454607e-05,8.580189751228318e-05,8.450489985989407e-05,8.314849401358515e-05,8.190280641429126e-05,8.066443842835724e-05,7.956111221574247e-05,7.84330113674514e-05,7.72431812947616e-05,7.60439143050462e-05,7.495920726796612e-05,7.38496019039303e-05,7.27698061382398e-05,7.178958912845701e-05,7.078097405610606e-05,6.97507566655986e-05,6.869921344332397e-05,6.785214645788074e-05,6.682566163362935e-05,6.588103133253753e-05,6.496869900729507e-05,6.410864443751052e-05,6.319802923826501e-05,6.22803854639642e-05,6.143260543467477e-05,6.0645605117315426e-05,5.983548180665821e-05,5.904489808017388e-05,5.819367652293295e-05,5.742164285038598e-05,5.6691609643166885e-05,5.589790453086607e-05,5.5185813835123554e-05,5.4387699492508546e-05,5.3673735237680376e-05,5.297004827298224e-05,5.228389272815548e-05,5.1637045544339344e-05,5.0940543587785214e-05,5.0302594900131226e-05,4.964457548339851e-05,4.905161040369421e-05,4.840697147301398e-05,4.777419599122368e-05,4.7140107199084014e-05,4.656376768252812e-05,4.601963155437261e-05,4.538892244454473e-05
17,3.6957690715789795,2.6585824489593506,2.452275514602661,2.213911294937134,1.8897324800491333,1.5021108388900757,1.0388423204421997,0.6052978038787842,0.33989638090133667,0.15513001382350922,0.0690930187702179,0.03561476990580559,0.022161174565553665,0.01533329114317894,0.011629088781774044,0.009377817623317242,0.007883776910603046,0.006893259938806295,0.006081477738916874,0.0052921767346560955,0.004729210399091244,0.004308804403990507,0.003842465113848448,0.003490840783342719,0.0032126728910952806,0.002971875946968794,0.0027285574469715357,0.002520131878554821,0.0023424983955919743,0.002181633375585079,0.002038670936599374,0.0019128054846078157,0.0017980302218347788,0.0016854824498295784,0.0015861367573961616,0.001503684208728373,0.001417267951183021,0.001342026749625802,0.0012771772453561425,0.0012080756714567542,0.0011462029069662094,0.0010912317084148526,0.001040303846821189,0.000991121749393642,0.0009466262999922037,0.000906235771253705,0.0008683868800289929,0.0008301299531012774,0.0007975915796123445,0.0007662952411919832,0.0007350574596785009,0.0007067059632390738,0.0006780755356885493,0.0006512682302854955,0.0006257705972529948,0.0006040738080628216,0.0005825900589115918,0.000562971574254334,0.0005420577945187688,0.000522477610502392,0.0005052609485574067,0.0004892671713605523,0.00047303453902713954,0.0004580941458698362,0.00044411831186152995,0.00043090584222227335,0.0004171558830421418,0.00040312649798579514,0.00039247769745998085,0.00037934904685243964,0.0003685778356157243,0.00035762053448706865,0.0003472736570984125,0.00033752789022400975,0.0003286143473815173,0.00032050677691586316,0.00031062428024597466,0.0003021341108251363,0.0002944457810372114,0.00028674330678768456,0.00027947931084781885,0.0002720308839343488,0.0002650153764989227,0.00025843281764537096,0.00025206070858985186,0.0002459836541675031,0.0002400082303211093,0.0002345414541196078,0.00022857545991428196,0.00022321633878163993,0.00021794917120132595,0.0002126447798218578,0.00020784327352885157,0.0002038613019976765,0.00019880309992004186,0.00019437115406617522,0.00019015897123608738,0.00018595044093672186,0.00018160104809794575,0.00017783987277653068,0.0001743050670484081,0.0001703220041235909,0.00016682063869666308,0.00016344596224371344,0.00016059652261901647,0.0001568198058521375,0.00015360460383817554,0.0001505773834651336,0.00014744930376764387,0.00014424142136704177,0.00014140929852146655,0.00013886285887565464,0.00013609803863801062,0.0001336235727649182,0.00013114458124618977,0.00012819681433029473,0.0001259751879842952,0.0001234501542057842,0.00012115302524762228,0.00011893106420757249,0.0001167493246612139,0.00011480822286102921,0.00011275649012532085,0.00011068256571888924,0.00010874072177102789,0.00010644004942150787,0.00010475343879079446,0.00010278497938998044,0.00010104374086949974,9.934390254784375e-05,9.773355122888461e-05,9.594065340934321e-05,9.419618436368182e-05,9.262900130124763e-05,9.099856106331572e-05,8.949603943619877e-05,8.799491479294375e-05,8.652037649881095e-05,8.516554953530431e-05,8.367547707166523e-05,8.232569962274283e-05,8.10166384326294e-05,7.968664431245998e-05,7.846564403735101e-05,7.729772914899513e-05,7.596415525767952e-05,7.478240149794146e-05,7.360161544056609e-05,7.246951281558722e-05,7.128891593310982e-05,7.020220800768584e-05,6.917392602190375e-05,6.809417391195893e-05,6.700063386233523e-05,6.607780233025551e-05,6.514491542475298e-05,6.401176506187767e-05,6.308846786851063e-05,6.213183951331303e-05,6.123701314209029e-05,6.026355185895227e-05,5.94599187024869e-05,5.852722824783996e-05,5.77095961489249e-05,5.685981159331277e-05,5.604093166766688e-05,5.5263517424464226e-05,5.442780093289912e-05,5.3672309149987996e-05,5.288730972097255e-05,5.22116242791526e-05,5.142260852153413e-05,5.070630140835419e-05,4.998681106371805e-05,4.928933776682243e-05,4.861365960096009e-05,4.7964811528800055e-05,4.729113425128162e-05,4.662918217945844e-05,4.600819738698192e-05,4.5387019781628624e-05,4.4776101276511326e-05,4.412676571519114e-05,4.357063153292984e-05,4.3004551116609946e-05,4.2419243982294574e-05,4.184502540738322e-05,4.1295308619737625e-05,4.077910489286296e-05,4.0246690332423896e-05,3.967268639826216e-05,3.91482790291775e-05,3.8612000935245305e-05,3.8214726373553276e-05,3.7667694414267316e-05,3.7199984944891185e-05,3.6725516110891476e-05,3.620869756559841e-05,3.577692768885754e-05,3.531336551532149e-05
18,4.3466715812683105,2.7806339263916016,2.59409236907959,2.446432590484619,2.2396128177642822,1.9647828340530396,1.6160757541656494,1.2018052339553833,0.7991123795509338,0.4396536648273468,0.2238934338092804,0.12943747639656067,0.06135405972599983,0.03243270888924599,0.021373210474848747,0.016309842467308044,0.013002901338040829,0.010648250579833984,0.00887349620461464,0.007684915326535702,0.0067440904676914215,0.006036841776221991,0.005362087860703468,0.004877205938100815,0.004405719228088856,0.003996561747044325,0.0036744391545653343,0.0033597704023122787,0.0030792730394750834,0.0028638807125389576,0.002645712811499834,0.0024662150535732508,0.002308674156665802,0.0021502289455384016,0.0020264636259526014,0.0019061854109168053,0.001795248594135046,0.0016909772530198097,0.0015943723265081644,0.0015134731074795127,0.001430803444236517,0.0013598265359178185,0.001288778381422162,0.0012310912134125829,0.0011726714437827468,0.0011153115192428231,0.0010677652899175882,0.0010170742170885205,0.0009771601762622595,0.0009323677513748407,0.0008966046152636409,0.0008615893893875182,0.0008250132668763399,0.0007921751821413636,0.0007630062755197287,0.0007335081463679671,0.0007069431012496352,0.0006820180569775403,0.0006561230984516442,0.000632717099506408,0.0006120991893112659,0.0005906772566959262,0.0005715459119528532,0.0005519242258742452,0.0005347346304915845,0.0005181818269193172,0.0005015897331759334,0.0004860105400439352,0.0004704243328887969,0.0004562280373647809,0.000442578864749521,0.00042786053381860256,0.0004165491845924407,0.000403620331780985,0.00039319589268416166,0.0003820063720922917,0.0003717112122103572,0.000361579965101555,0.0003509007510729134,0.00034214070183224976,0.0003328377497382462,0.0003236359334550798,0.0003155464946758002,0.0003073773696087301,0.0003001262084580958,0.00029270362574607134,0.000285210320726037,0.0002783261879812926,0.00027181251789443195,0.0002648253575898707,0.0002589032519608736,0.0002525034360587597,0.000246814131969586,0.00024103099713101983,0.00023529362806584686,0.00023041169333737344,0.00022462957713287324,0.00021980295423418283,0.00021499830472748727,0.00021018787811044604,0.0002057500387309119,0.0002018138620769605,0.00019702166900970042,0.00019303896988276392,0.00018916257249657065,0.00018523077596910298,0.00018138799350708723,0.00017757333989720792,0.00017362971266265959,0.0001704421010799706,0.00016720859275665134,0.00016349341603927314,0.00016045194934122264,0.0001572209148434922,0.0001544387632748112,0.0001511385344201699,0.0001483051892137155,0.00014541532436851412,0.00014282605843618512,0.000139860509079881,0.00013739113637711853,0.00013497464533429593,0.0001326117926510051,0.0001300381263718009,0.00012755398347508162,0.0001252690562978387,0.00012299853551667184,0.00012071507080690935,0.00011852932948386297,0.00011657005961751565,0.00011455597268650308,0.00011243208427913487,0.00011060050019295886,0.00010868928802665323,0.0001067404227796942,0.00010492753790458664,0.0001032657892210409,0.00010145229316549376,9.979657625081018e-05,9.799761755857617e-05,9.639870404498652e-05,9.478713036514819e-05,9.323671838501468e-05,9.165513620246202e-05,9.027806663652882e-05,8.889669697964564e-05,8.745393279241398e-05,8.592332596890628e-05,8.462720143143088e-05,8.328745025210083e-05,8.193388930521905e-05,8.062893175520003e-05,7.9370554885827e-05,7.814037962816656e-05,7.694358646403998e-05,7.581459794891998e-05,7.466644456144422e-05,7.347537757596001e-05,7.250887574627995e-05,7.135442865546793e-05,7.01779208611697e-05,6.919378938619047e-05,6.81797755532898e-05,6.725461571477354e-05,6.61840385873802e-05,6.525108619825915e-05,6.425025640055537e-05,6.331782060442492e-05,6.235788896447048e-05,6.155655137263238e-05,6.064634726499207e-05,5.979408524581231e-05,5.897045411984436e-05,5.809240246890113e-05,5.7382771046832204e-05,5.642911128234118e-05,5.565645915339701e-05,5.4885244026081637e-05,5.4109274060465395e-05,5.3351715905591846e-05,5.263865023152903e-05,5.18857195856981e-05,5.120873174746521e-05,5.049952233093791e-05,4.983067628927529e-05,4.9148100515594706e-05,4.846827869187109e-05,4.7830191761022434e-05,4.719776552519761e-05,4.6640045184176415e-05,4.598809755407274e-05,4.533918036031537e-05,4.473826993489638e-05,4.413474380271509e-05,4.359351078164764e-05,4.302618981455453e-05,4.249233825248666e-05,4.190846811980009e-05,4.140606688451953e-05,4.081571023561992e-05
19,4.014606475830078,2.7053189277648926,2.528754711151123,2.3414556980133057,2.0882208347320557,1.7689239978790283,1.3658427000045776,0.9348544478416443,0.6448302865028381,0.3639417886734009,0.16736087203025818,0.07616637647151947,0.04316136613488197,0.029960284009575844,0.02141016535460949,0.016212869435548782,0.013032341375946999,0.010495021007955074,0.008992179296910763,0.007757989689707756,0.006865407805889845,0.006141267251223326,0.005526953376829624,0.004869711585342884,0.0044648414477705956,0.004018525592982769,0.00369592965580523,0.003404468297958374,0.003130650846287608,0.002893722616136074,0.0026838036719709635,0.002492808271199465,0.0023288545198738575,0.0021734307520091534,0.002046851208433509,0.0019259235123172402,0.0018147692317143083,0.0017092188354581594,0.0016202888218685985,0.001534616807475686,0.0014452746836468577,0.00137134431861341,0.0013074732851237059,0.0012425712775439024,0.0011845940025523305,0.001124511705711484,0.0010786240454763174,0.0010324034374207258,0.000992399174720049,0.0009461726294830441,0.0009070015512406826,0.0008691874681971967,0.000831361161544919,0.000798315682914108,0.0007700263522565365,0.0007381877512671053,0.0007099293288774788,0.0006855870014987886,0.0006624241941608489,0.0006365166627801955,0.000616375298704952,0.0005959391128271818,0.000574292556848377,0.0005542178987525403,0.000536296225618571,0.0005201214225962758,0.0005045972648076713,0.000487402401631698,0.00047274117241613567,0.00045764667447656393,0.00044499823707155883,0.00043109149555675685,0.00041790405521169305,0.0004055913886986673,0.00039408818702213466,0.00038440185016952455,0.0003729688178282231,0.00036273442674428225,0.0003516708966344595,0.0003424978058319539,0.00033362850081175566,0.00032497014035470784,0.000316146994009614,0.00030873753712512553,0.00030060342396609485,0.0002936596574727446,0.00028519550687633455,0.00027782205143012106,0.00027234433218836784,0.00026527460431680083,0.00025824602926149964,0.00025252957129850984,0.0002459846728015691,0.00024046916223596781,0.00023492524633184075,0.00022961560171097517,0.00022456546139437705,0.0002195577253587544,0.0002142908051609993,0.00020930689061060548,0.00020492153998930007,0.0002006571739912033,0.00019606927526183426,0.0001920634531415999,0.00018820101104211062,0.00018404089496470988,0.00018068675126414746,0.0001766269706422463,0.00017279907478950918,0.0001693619560683146,0.00016575019981246442,0.00016269188199657947,0.00015925077605061233,0.00015610380796715617,0.00015302587416954339,0.00015011049981694669,0.00014720726176165044,0.000144317775266245,0.00014182619634084404,0.000138841598527506,0.00013641708937939256,0.00013374265108723193,0.00013131232117302716,0.0001287641644012183,0.00012644317757803947,0.00012428789341356605,0.00012215056631248444,0.00011973116488661617,0.0001177912563434802,0.0001156586513388902,0.0001136138234869577,0.00011150551290484145,0.00010972005111398175,0.00010786029451992363,0.00010589259181870148,0.0001040340939653106,0.0001022837677737698,0.00010069000563817099,9.879955905489624e-05,9.716363274492323e-05,9.567942470312119e-05,9.412883082404733e-05,9.254192264052108e-05,9.110298560699448e-05,8.963319851318374e-05,8.816210174700245e-05,8.670603710925207e-05,8.540134876966476e-05,8.406671258853748e-05,8.272825652966276e-05,8.133867231663316e-05,8.018109656404704e-05,7.87846147431992e-05,7.766870112391189e-05,7.640328840352595e-05,7.517566700698808e-05,7.421065674861893e-05,7.287142216227949e-05,7.184484275057912e-05,7.0680194767192e-05,6.970461981836706e-05,6.871806544950232e-05,6.768370076315477e-05,6.669019057881087e-05,6.568390381289646e-05,6.476445560110733e-05,6.37977645965293e-05,6.278672663029283e-05,6.20259452261962e-05,6.10899442108348e-05,6.0162070440128446e-05,5.9323891036910936e-05,5.845272971782833e-05,5.7695659052114934e-05,5.6889890402089804e-05,5.6116943596862257e-05,5.528311521629803e-05,5.453142512124032e-05,5.3774481784785166e-05,5.311432687449269e-05,5.221094761509448e-05,5.157527994015254e-05,5.087180034024641e-05,5.014707858208567e-05,4.947981869918294e-05,4.8822141252458096e-05,4.817350418306887e-05,4.753252142108977e-05,4.688174885814078e-05,4.627987800631672e-05,4.5645654608961195e-05,4.5024058636045083e-05,4.443349826033227e-05,4.384935164125636e-05,4.332750177127309e-05,4.275052924640477e-05,4.216789602651261e-05,4.1648461774457246e-05,4.109390647499822e-05,4.059074490214698e-05
20,3.896052360534668,2.7210214138031006,2.5367190837860107,2.3341832160949707,2.0814783573150635,1.734171748161316,1.3344917297363281,0.9422129988670349,0.5768850445747375,0.2998609244823456,0.176256000995636,0.08316486328840256,0.044575285166502,0.02715494856238365,0.01840287446975708,0.014619930647313595,0.01171677466481924,0.009672542102634907,0.008225067518651485,0.007276975084096193,0.006392275914549828,0.005694122985005379,0.005159215070307255,0.004692727234214544,0.004272812511771917,0.0038662601727992296,0.0035297079011797905,0.0032891114242374897,0.00304072885774076,0.002821457339450717,0.0026314889546483755,0.0024506112094968557,0.0022877883166074753,0.002145635662600398,0.0020262079779058695,0.00190710776951164,0.0017977918032556772,0.0017084329156205058,0.0016188709996640682,0.001538459095172584,0.001460320665501058,0.0013766697375103831,0.0013090440770611167,0.001251116394996643,0.0011925101280212402,0.0011334373848512769,0.0010872541461139917,0.0010421940824016929,0.0009968266822397709,0.0009541176841594279,0.000917434343136847,0.0008823096286505461,0.0008465264108963311,0.0008152954978868365,0.0007825059001334012,0.0007511723088100553,0.0007241442799568176,0.0006999190081842244,0.0006739475065842271,0.0006507470388896763,0.0006294787162914872,0.0006072625983506441,0.0005887788720428944,0.0005693614366464317,0.000550366472452879,0.0005327365943230689,0.000516322033945471,0.0005009519518353045,0.0004849726683460176,0.00047087291022762656,0.0004582514811772853,0.0004441354249138385,0.0004322212189435959,0.00041985721327364445,0.0004068380512762815,0.0003955253050662577,0.0003855627728626132,0.0003750288160517812,0.000365440733730793,0.00035623679286800325,0.0003457270795479417,0.00033714843448251486,0.00032859586644917727,0.0003202359948772937,0.0003122387861367315,0.000304741581203416,0.0002978849515784532,0.0002904834982473403,0.0002830061421263963,0.00027649145340546966,0.0002701160265132785,0.0002640531165525317,0.00025742241996340454,0.00025146143161691725,0.0002459436364006251,0.00024048573686741292,0.00023524013522546738,0.00023042323300614953,0.00022541749058291316,0.0002203032490797341,0.0002156514092348516,0.00021118971926625818,0.00020716864673886448,0.00020234714611433446,0.00019840526510961354,0.0001940324727911502,0.00018991883553098887,0.0001864159421529621,0.00018264558457303792,0.00017877882055472583,0.00017570305499248207,0.00017189352365676314,0.0001685636379988864,0.0001652659266255796,0.0001621111878193915,0.00015918072313070297,0.00015603478823322803,0.0001531191956019029,0.0001504890387877822,0.00014787389955017716,0.00014489947352558374,0.00014200857549440116,0.00013961178774479777,0.00013707956532016397,0.000134887988679111,0.0001322628668276593,0.000129691296024248,0.00012744012929033488,0.00012523499026428908,0.00012304204574320465,0.000120839751616586,0.00011898003867827356,0.00011674008419504389,0.00011497415835037827,0.00011285548680461943,0.00011095817171735689,0.00010926750110229477,0.00010724333696998656,0.0001057071058312431,0.00010389498493168503,0.00010206182923866436,0.000100664263300132,9.884490282274783e-05,9.732795297168195e-05,9.569055691827089e-05,9.416318061994389e-05,9.270011651096866e-05,9.130054240813479e-05,8.98751532076858e-05,8.840463851811364e-05,8.706301014171913e-05,8.570262434659526e-05,8.436151256319135e-05,8.303929644171149e-05,8.183339377865195e-05,8.057769446168095e-05,7.937318150652573e-05,7.815797289367765e-05,7.696470129303634e-05,7.589896995341405e-05,7.478635234292597e-05,7.3708375566639e-05,7.251201168401167e-05,7.155712955864146e-05,7.061587530188262e-05,6.947074143681675e-05,6.848420161986724e-05,6.762048724340275e-05,6.646203837590292e-05,6.562110502272844e-05,6.463005411205813e-05,6.374268559738994e-05,6.284069968387485e-05,6.19534112047404e-05,6.109217065386474e-05,6.0302958445390686e-05,5.9406764194136485e-05,5.8620375057216734e-05,5.785461326013319e-05,5.7039058447116986e-05,5.628349754260853e-05,5.549842171603814e-05,5.477349986904301e-05,5.398283610702492e-05,5.330923158908263e-05,5.2668110583908856e-05,5.188206705497578e-05,5.121631329529919e-05,5.0474907766329125e-05,4.980095400242135e-05,4.9197562475455925e-05,4.849823017138988e-05,4.792960680788383e-05,4.730420914711431e-05,4.6678749640705064e-05,4.6100471081444994e-05,4.551853271550499e-05,4.489065759116784e-05,4.432878995430656e-05,4.3730513425543904e-05
21,3.8036081790924072,2.6949572563171387,2.5195956230163574,2.3437507152557373,2.0859789848327637,1.7819160223007202,1.3976608514785767,0.9558386206626892,0.6073417067527771,0.347096711397171,0.20774269104003906,0.11186018586158752,0.05183175578713417,0.026159929111599922,0.017831668257713318,0.012858446687459946,0.010386519134044647,0.008668393827974796,0.0075005460530519485,0.006490777712315321,0.0057945516891777515,0.00521061709150672,0.004704606253653765,0.004272277466952801,0.003855645889416337,0.0035775548312813044,0.003286514664068818,0.0030417288653552532,0.002821893896907568,0.0026179165579378605,0.002430886495858431,0.0022815284319221973,0.002131961053237319,0.0020034480839967728,0.0018810825422406197,0.0017721614567562938,0.0016741412691771984,0.0015872009098529816,0.0015017885016277432,0.001424541580490768,0.0013508619740605354,0.0012868413468822837,0.0012251846492290497,0.0011667846702039242,0.0011145869502797723,0.00106347119435668,0.001018872600980103,0.0009744430426508188,0.0009346689330413938,0.0008940574480220675,0.000857943610753864,0.0008239888120442629,0.000792218663264066,0.0007628288585692644,0.0007349762017838657,0.0007072705193422735,0.0006813134532421827,0.0006577567546628416,0.0006340104155242443,0.000612456351518631,0.0005929417675361037,0.0005725142545998096,0.0005528607289306819,0.000535235449206084,0.0005178287974558771,0.0005017457879148424,0.0004864464863203466,0.0004728843050543219,0.00045721232891082764,0.00044433053699322045,0.00043007111526094377,0.00041888069245032966,0.0004076461773365736,0.0003964249335695058,0.0003841170691885054,0.0003732041805051267,0.0003631750005297363,0.0003537932934705168,0.0003440012806095183,0.00033494248054921627,0.00032648889464326203,0.00031783603481017053,0.0003096436557825655,0.0003019712457899004,0.00029489235021173954,0.0002882393600884825,0.00028143313829787076,0.00027351206517778337,0.00026749345124699175,0.00026152681675739586,0.0002547317126300186,0.000248013500822708,0.00024288747226819396,0.00023762091586831957,0.00023182763834483922,0.00022668148449156433,0.00022159646323416382,0.0002168171340599656,0.00021206944074947387,0.00020746861991938204,0.00020323472563177347,0.00019924754451494664,0.00019494479056447744,0.00019087169494014233,0.00018662559159565717,0.00018287679995410144,0.00017927771841641515,0.00017554796067997813,0.00017218620632775128,0.00016836691065691411,0.00016572486492805183,0.00016249327745754272,0.00015900224389042705,0.00015625018568243831,0.00015291327144950628,0.00015025438915472478,0.00014715315774083138,0.0001447085669497028,0.00014188078057486564,0.0001391996629536152,0.00013662978017237037,0.0001342439791187644,0.0001317843416472897,0.00012930734374094754,0.00012697518104687333,0.00012491487723309547,0.00012245438119862229,0.00012063611211488023,0.00011827118578366935,0.00011652190733002499,0.00011445012205513194,0.00011234990233788267,0.00011065344733651727,0.00010851007391465828,0.00010676559031708166,0.00010503823432372883,0.00010331306111766025,0.00010164341074414551,9.978156595025212e-05,9.827945905271918e-05,9.668409620644525e-05,9.514250996289775e-05,9.354394569527358e-05,9.210424468619749e-05,9.065280028153211e-05,8.914826321415603e-05,8.77008933457546e-05,8.63893874338828e-05,8.498521492583677e-05,8.382755186175928e-05,8.246268407674506e-05,8.117537072394043e-05,7.990728772711009e-05,7.871663547120988e-05,7.752335659461096e-05,7.633463974343613e-05,7.524876855313778e-05,7.406954682664946e-05,7.296801777556539e-05,7.186413859017193e-05,7.080653449520469e-05,6.96897623129189e-05,6.883005698909983e-05,6.784460856579244e-05,6.670870789093897e-05,6.58503922750242e-05,6.494129047496244e-05,6.402536382665858e-05,6.309212767519057e-05,6.213619053596631e-05,6.131429108791053e-05,6.046416820026934e-05,5.966667959000915e-05,5.872957990504801e-05,5.790641807834618e-05,5.711596895707771e-05,5.635544584947638e-05,5.558989505516365e-05,5.4876276408322155e-05,5.41012741450686e-05,5.3417326853377745e-05,5.266990410746075e-05,5.197181963012554e-05,5.120632704347372e-05,5.0640803237911314e-05,4.9842001317301765e-05,4.9247573770117015e-05,4.85407181258779e-05,4.787421858054586e-05,4.7374360292451456e-05,4.670959242503159e-05,4.6077926526777446e-05,4.551259917207062e-05,4.488154809223488e-05,4.432568675838411e-05,4.372002513264306e-05,4.3185893446207047e-05,4.2641691834433004e-05,4.2143907194258645e-05,4.1578110540285707e-05
22,4.239290237426758,2.8003664016723633,2.584817409515381,2.4330694675445557,2.2059223651885986,1.898435354232788,1.4465950727462769,1.0280576944351196,0.5637750029563904,0.3105621039867401,0.14381062984466553,0.06820406019687653,0.03670651093125343,0.022236300632357597,0.014545004814863205,0.010758335702121258,0.008696182630956173,0.007400169502943754,0.006458152085542679,0.005679810419678688,0.004958448000252247,0.004418930970132351,0.004006118513643742,0.003629672108218074,0.0033251179847866297,0.003046642290428281,0.002810962498188019,0.0025817621499300003,0.002406452316790819,0.002235233085229993,0.0020842126104980707,0.0019409836968407035,0.00181859964504838,0.0016963368980214,0.0016064891824498773,0.001512435032054782,0.0014303451171144843,0.001350652426481247,0.0012772611808031797,0.0012208906700834632,0.0011541341664269567,0.0010918977204710245,0.0010453211143612862,0.0009941939497366548,0.0009469949873164296,0.0009066321654245257,0.0008666283101774752,0.0008287379168905318,0.0007935605826787651,0.0007639877730980515,0.0007338261930271983,0.0007034520385786891,0.0006769257015548646,0.0006524022901430726,0.0006272699101828039,0.0006042291061021388,0.0005840494995936751,0.0005619290750473738,0.0005428363801911473,0.0005240113823674619,0.0005067326710559428,0.0004903316148556769,0.00047462209477089345,0.00045950899948365986,0.0004444893274921924,0.00043070793617516756,0.00041707957279868424,0.0004042916698381305,0.0003922221658285707,0.0003812957729678601,0.0003705437120515853,0.0003622453077696264,0.0003488319634925574,0.0003393252845853567,0.00032994250068441033,0.0003208331763744354,0.0003126405063085258,0.0003040039446204901,0.00029573135543614626,0.0002882858971133828,0.0002806869160849601,0.00027380112442187965,0.0002666778163984418,0.0002603477914817631,0.0002538407570682466,0.00024734463659115136,0.00024197030870709568,0.00023606957984156907,0.00023000304645393044,0.00022482743952423334,0.00021970590751152486,0.00021466986800078303,0.000209642865229398,0.0002049106842605397,0.0002004693087656051,0.0001962052920134738,0.00019178148068021983,0.0001875823363661766,0.00018320571689400822,0.00017924653366208076,0.00017551524797454476,0.0001717260165605694,0.0001684596500126645,0.00016497515025548637,0.0001613358035683632,0.0001580200478201732,0.0001549314911244437,0.00015186121163424104,0.0001488841517129913,0.00014590377395506948,0.0001429511612514034,0.00014008187281433493,0.00013766210759058595,0.0001348179066553712,0.0001323405303992331,0.00012989158858545125,0.00012747454456984997,0.00012508712825365365,0.00012304664414841682,0.00012035489635309204,0.00011830498260678723,0.0001160351384896785,0.00011429652658989653,0.00011199562868569046,0.00011011459719156846,0.00010794965783134103,0.00010611935431370512,0.00010416907025501132,0.00010247319005429745,0.00010068760457215831,9.900159784592688e-05,9.72152192844078e-05,9.558419696986675e-05,9.404729644302279e-05,9.244826651411131e-05,9.098640293814242e-05,8.943863940658048e-05,8.793090091785416e-05,8.653442637296394e-05,8.502105629304424e-05,8.379287464777008e-05,8.234364941017702e-05,8.108920155791566e-05,7.98458349891007e-05,7.856981392251328e-05,7.725167233729735e-05,7.608303712913767e-05,7.488535629818216e-05,7.367710350081325e-05,7.263109728228301e-05,7.152141915867105e-05,7.038649346213788e-05,6.935407145647332e-05,6.822011346230283e-05,6.721811223542318e-05,6.62713500787504e-05,6.525748176500201e-05,6.426664913306013e-05,6.334271893138066e-05,6.243307143449783e-05,6.156673771329224e-05,6.063598993932828e-05,5.975351086817682e-05,5.8864687161985785e-05,5.7989869674202055e-05,5.714830331271514e-05,5.6367713114013895e-05,5.5651747970841825e-05,5.4795069445390254e-05,5.401027374318801e-05,5.3292311349650845e-05,5.2493160183075815e-05,5.177671482670121e-05,5.100502312416211e-05,5.0347691285423934e-05,4.966215055901557e-05,4.900585918221623e-05,4.829567842534743e-05,4.766325218952261e-05,4.6998266043374315e-05,4.6369426854653284e-05,4.582383917295374e-05,4.5123051677364856e-05,4.4602365960599855e-05,4.396324584376998e-05,4.338242069934495e-05,4.284283932065591e-05,4.227062163408846e-05,4.168951272731647e-05,4.1191247873939574e-05,4.064345557708293e-05,4.0086011722451076e-05,3.955649663112126e-05,3.9055194065440446e-05,3.854809983749874e-05,3.8063080864958465e-05,3.758171442314051e-05,3.711325553013012e-05,3.662229937617667e-05,3.62229511665646e-05
23,4.158829689025879,2.708409547805786,2.5320346355438232,2.3350322246551514,2.0806400775909424,1.7198659181594849,1.278175950050354,0.8765032887458801,0.536726713180542,0.29390236735343933,0.1462613046169281,0.06717351078987122,0.03392310440540314,0.020773515105247498,0.01501508429646492,0.011927795596420765,0.009986942633986473,0.008391108363866806,0.007305762264877558,0.006449728272855282,0.005715644918382168,0.0051351808942854404,0.004611671902239323,0.004194957669824362,0.003899384755641222,0.0034915979485958815,0.0032089187297970057,0.002945271320641041,0.0027411500923335552,0.0025521402712911367,0.0023781212512403727,0.0022097413893789053,0.002080314327031374,0.0019371540984138846,0.0018338668160140514,0.0017276644939556718,0.0016259526601061225,0.001550559769384563,0.00146444421261549,0.0013854963472113013,0.0013139997608959675,0.0012514943955466151,0.0011917265364900231,0.0011326746316626668,0.0010797035647556186,0.0010352538665756583,0.0009905218612402678,0.0009460725705139339,0.0009084370685741305,0.0008715439471416175,0.0008353489683941007,0.0008026885916478932,0.0007721465080976486,0.0007424616487696767,0.0007145213312469423,0.0006881066365167499,0.0006663702661171556,0.0006402727449312806,0.0006184626836329699,0.0005979490233585238,0.0005774938617832959,0.0005568494088947773,0.0005385521799325943,0.0005218982114456594,0.0005052209016866982,0.0004894847515970469,0.00047418795293197036,0.00045919205876998603,0.0004455210582818836,0.0004325171757955104,0.00042007124284282327,0.00040808430640026927,0.0003958962333854288,0.00038493971806019545,0.00037364952731877565,0.0003643289383035153,0.0003545715881045908,0.0003455535043030977,0.0003356391389388591,0.0003267082793172449,0.0003186966059729457,0.0003105467476416379,0.0003024971520062536,0.0002945875166915357,0.0002875936625059694,0.00028043234487995505,0.0002733473083935678,0.0002670717076398432,0.00026055911439470947,0.0002543220471125096,0.00024833131465129554,0.0002429180167382583,0.00023714765848126262,0.00023158136173151433,0.00022636384528595954,0.00022142718080431223,0.00021673450828529894,0.00021219829795882106,0.00020742639026138932,0.00020269017841201276,0.00019828046788461506,0.0001941829250426963,0.00018997659208253026,0.0001861825439846143,0.0001824454520829022,0.00017880514496937394,0.00017469441809225827,0.00017170378123410046,0.0001677757827565074,0.00016456091543659568,0.00016123299428727478,0.00015821093984413892,0.000154709312482737,0.00015188327233772725,0.00014885484415572137,0.00014597451081499457,0.00014325955999083817,0.00014045309217181057,0.00013780093286186457,0.0001351485843770206,0.0001328216603724286,0.00013035257870797068,0.00012793859059456736,0.0001257901021745056,0.00012335118663031608,0.00012099448213120922,0.00011905065184691921,0.00011677482689265162,0.00011474118218757212,0.00011288748646620661,0.00011087184975622222,0.00010887260577874258,0.0001070260550477542,0.00010522064258111641,0.0001034683155012317,0.00010167238360736519,0.0001000101983663626,9.844045416684821e-05,9.672063606558368e-05,9.509263327345252e-05,9.349589527118951e-05,9.201340435538441e-05,9.051898086909205e-05,8.912636985769495e-05,8.765080565353855e-05,8.623903704574332e-05,8.487587911076844e-05,8.360389620065689e-05,8.21938447188586e-05,8.101177809294313e-05,7.973088941071182e-05,7.841103069949895e-05,7.723895396338776e-05,7.60205730330199e-05,7.482935325242579e-05,7.380556053249165e-05,7.261332939378917e-05,7.153958722483367e-05,7.044555968604982e-05,6.941493484191597e-05,6.833118823124096e-05,6.735808710800484e-05,6.629620474996045e-05,6.535026477649808e-05,6.436978583224118e-05,6.345289875753224e-05,6.246847624424845e-05,6.162188219605014e-05,6.074148041079752e-05,5.9864931245101616e-05,5.9019512264057994e-05,5.8199795603286475e-05,5.728787073167041e-05,5.6483695516362786e-05,5.576421244768426e-05,5.4925189033383504e-05,5.4212749091675505e-05,5.3408144594868645e-05,5.267390588414855e-05,5.1942213758593425e-05,5.122929360368289e-05,5.052981578046456e-05,4.984144470654428e-05,4.918066770187579e-05,4.8501537094125524e-05,4.781633469974622e-05,4.721356890513562e-05,4.6593075239798054e-05,4.595388600137085e-05,4.53490465588402e-05,4.476683898246847e-05,4.418889875523746e-05,4.3598003685474396e-05,4.302620072849095e-05,4.246530443197116e-05,4.191930202068761e-05,4.139179509365931e-05,4.08542764489539e-05,4.033704681205563e-05,3.984236900578253e-05
24,4.3531951904296875,2.789848566055298,2.5943310260772705,2.458299398422241,2.2671964168548584,2.001718282699585,1.6379930973052979,1.2160253524780273,0.7877485752105713,0.4393770396709442,0.21151143312454224,0.09561348706483841,0.05005275458097458,0.028550300747156143,0.01884612813591957,0.013902216218411922,0.011236278340220451,0.009138006716966629,0.007889054715633392,0.006843206938356161,0.0059396205469965935,0.0052989814430475235,0.004787735175341368,0.004279631190001965,0.003913204185664654,0.003575121285393834,0.0032609968911856413,0.0029965685680508614,0.0027803564444184303,0.002571991179138422,0.002392389113083482,0.0022392263635993004,0.002084728330373764,0.0019589487928897142,0.0018375610234215856,0.0017297553131356835,0.0016264001606032252,0.0015365724684670568,0.0014574407832697034,0.0013806623173877597,0.001307553960941732,0.001241466961801052,0.0011869347654283047,0.00112801359500736,0.0010760115692391992,0.001025705598294735,0.0009764988208189607,0.0009406614117324352,0.000900483806617558,0.0008641916792839766,0.0008254646672867239,0.0007915862370282412,0.000761908944696188,0.0007318214047700167,0.0007043926743790507,0.0006792693166062236,0.0006535673164762557,0.0006301135290414095,0.0006072982796467841,0.0005868096486665308,0.0005676002474501729,0.0005479392129927874,0.0005312281427904963,0.0005130632780492306,0.0004960932419635355,0.0004796670109499246,0.0004666763124987483,0.00045205841888673604,0.0004361778264865279,0.00042402223334647715,0.00041125810821540654,0.00040069621172733605,0.0003883590688928962,0.00037736506783403456,0.0003663662064354867,0.0003558904572855681,0.0003474059922154993,0.00033704526140354574,0.0003279977245256305,0.0003190645657014102,0.00031134040909819305,0.0003034105175174773,0.0002945874584838748,0.00028775824466720223,0.00028026686049997807,0.0002735225425567478,0.00026653282111510634,0.000260662694927305,0.00025373956304974854,0.00024767278227955103,0.0002419398952042684,0.00023642218729946762,0.0002315858582733199,0.00022586846898775548,0.0002206710196333006,0.00021562199981417507,0.00021090972586534917,0.00020653678802773356,0.0002019046660279855,0.0001976780768018216,0.00019334329408593476,0.0001892290310934186,0.00018530859961174428,0.00018144586647395045,0.00017777830362319946,0.00017415570619050413,0.00017064197163563222,0.0001670472411205992,0.00016389923985116184,0.00016068514378275722,0.0001571928441990167,0.00015418104885611683,0.00015132836415432394,0.0001484155363868922,0.00014532747445628047,0.0001427177485311404,0.00013993009633850306,0.00013740654685534537,0.00013479165500029922,0.0001324915065197274,0.00012981693726032972,0.00012760897516272962,0.00012514310947153717,0.00012292302562855184,0.0001206550732604228,0.00011869414447573945,0.00011650327360257506,0.00011458463268354535,0.00011245334462728351,0.0001106549461837858,0.00010862159979296848,0.00010685072629712522,0.00010499035124666989,0.00010329786164220423,0.00010151688911719248,9.985702490666881e-05,9.820997365750372e-05,9.663194214226678e-05,9.496854181634262e-05,9.340254473499954e-05,9.199967462336645e-05,9.043622412718832e-05,8.903584239305928e-05,8.760759374126792e-05,8.617332787252963e-05,8.48993004183285e-05,8.358788181794807e-05,8.222345786634833e-05,8.098894613794982e-05,7.975588960107416e-05,7.84810254117474e-05,7.732430822215974e-05,7.611158798681572e-05,7.504149834858254e-05,7.389396341750398e-05,7.276035466929898e-05,7.168123556766659e-05,7.061039650579914e-05,6.961611506994814e-05,6.857465632492676e-05,6.755499634891748e-05,6.654499156866223e-05,6.567307718796656e-05,6.471099914051592e-05,6.369002221617848e-05,6.278375803958625e-05,6.210297578945756e-05,6.099412348703481e-05,6.020559521857649e-05,5.932919884799048e-05,5.850087109138258e-05,5.76917955186218e-05,5.694860010407865e-05,5.6074466556310654e-05,5.53531244804617e-05,5.4571559303440154e-05,5.3808835218660533e-05,5.313792280503549e-05,5.243043779046275e-05,5.170040822122246e-05,5.100769340060651e-05,5.032981061958708e-05,4.9616952310316265e-05,4.8990739742293954e-05,4.8340032662963495e-05,4.765751873492263e-05,4.704557068180293e-05,4.641666600946337e-05,4.581845860229805e-05,4.5233897253638133e-05,4.4654028897639364e-05,4.4055119360564277e-05,4.34758112533018e-05,4.291773439035751e-05,4.244175215717405e-05,4.1869345295708627e-05,4.133928086957894e-05,4.080038343090564e-05,4.029011688544415e-05,3.975295476266183e-05
25,4.683112621307373,2.7833731174468994,2.5934031009674072,2.45883846282959,2.27378511428833,2.047887086868286,1.739935278892517,1.3412518501281738,0.9479677677154541,0.56490159034729,0.3129863440990448,0.16635678708553314,0.08368509262800217,0.04935533553361893,0.030307922512292862,0.02031359262764454,0.014902196824550629,0.012097824364900589,0.009990062564611435,0.008668698370456696,0.007512738928198814,0.0067282551899552345,0.005915180314332247,0.005333383101969957,0.004873016383498907,0.0044098892249166965,0.004046393558382988,0.00367028103210032,0.0033948246855288744,0.003132809419184923,0.0029009117279201746,0.002722417935729027,0.0025462638586759567,0.002373354509472847,0.0022403772454708815,0.0020932231564074755,0.001975446008145809,0.0018593809800222516,0.0017613391391932964,0.0016647903248667717,0.0015706084668636322,0.0014937514206394553,0.0014221486635506153,0.0013488569529727101,0.0012920527951791883,0.0012268389109522104,0.0011737357126548886,0.001120697008445859,0.0010769813088700175,0.0010344893671572208,0.0009897192940115929,0.0009478818392381072,0.0009092001710087061,0.0008753481088206172,0.0008427546126767993,0.0008097287500277162,0.0007815210847184062,0.0007510778959840536,0.0007251038332469761,0.0007009670953266323,0.000677809992339462,0.0006542566115967929,0.000635014905128628,0.0006124664796516299,0.0005916744703426957,0.0005736728198826313,0.0005547281471081078,0.0005367401172406971,0.0005189218209125102,0.0005030252505093813,0.0004892772412858903,0.0004748533829115331,0.00046201449004001915,0.0004484500386752188,0.00043532575364224613,0.00042474252404645085,0.00041182077256962657,0.00040075075230561197,0.00039008332532830536,0.0003793386567849666,0.00036926730535924435,0.00035985317663289607,0.0003510562819428742,0.00034122131182812154,0.0003329684550408274,0.000324103981256485,0.00031730931368656456,0.0003088881785515696,0.0003008709754794836,0.00029423105297610164,0.00028739162371493876,0.0002807517594192177,0.00027413442148827016,0.0002674577117431909,0.0002617154677864164,0.00025562121300026774,0.0002496939559932798,0.00024421431589871645,0.0002385407715337351,0.0002343207597732544,0.00022894357971381396,0.00022365966287907213,0.0002193658729083836,0.00021429713524412364,0.000210024110856466,0.0002053283533314243,0.00020145003509242088,0.00019706030434463173,0.00019330281065776944,0.00018945361080113798,0.0001854059664765373,0.0001817849260987714,0.00017837535415310413,0.00017452618340030313,0.00017132324865087867,0.0001679422566667199,0.00016491884889546782,0.00016156985657289624,0.00015861637075431645,0.00015571413678117096,0.00015270107542164624,0.000150018124259077,0.0001474013552069664,0.00014451256720349193,0.0001416831073584035,0.00013949481945019215,0.0001368912198813632,0.00013457251770887524,0.00013211093028075993,0.0001297923008678481,0.00012750813039019704,0.0001253072259714827,0.00012309879821259528,0.00012116477591916919,0.00011939954129047692,0.00011692684347508475,0.00011500714754220098,0.00011304974759696051,0.00011127655307063833,0.00010932447185041383,0.000107696330815088,0.00010593674232950434,0.0001040703064063564,0.0001024468001560308,0.0001007670653052628,9.937370487023145e-05,9.773758210940287e-05,9.62503399932757e-05,9.467896597925574e-05,9.318575030192733e-05,9.169796976493672e-05,9.018608398037031e-05,8.886275463737547e-05,8.747240644879639e-05,8.612581586930901e-05,8.487542800139636e-05,8.354442979907617e-05,8.234770939452574e-05,8.114989032037556e-05,7.991868915269151e-05,7.868361717555672e-05,7.769023068249226e-05,7.652798376511782e-05,7.538143108831719e-05,7.420877227559686e-05,7.319221185753122e-05,7.219194230856374e-05,7.097941124811769e-05,7.005610677879304e-05,6.907245551701635e-05,6.80818993714638e-05,6.724750710418448e-05,6.610049604205415e-05,6.551312981173396e-05,6.440392462536693e-05,6.342757114907727e-05,6.26022883807309e-05,6.166794628370553e-05,6.0802994994446635e-05,6.005972682032734e-05,5.9266640164423734e-05,5.8419002016307786e-05,5.7634824770502746e-05,5.690976104233414e-05,5.61173765163403e-05,5.531235728994943e-05,5.4567353799939156e-05,5.389126454247162e-05,5.3172199841355905e-05,5.248197339824401e-05,5.179669460630976e-05,5.11095677211415e-05,5.0419890612829477e-05,4.976407944923267e-05,4.9151927669299766e-05,4.854295912082307e-05,4.7851543058641255e-05,4.7263332817237824e-05,4.663525032810867e-05,4.611567783285864e-05
26,4.712281227111816,2.8768370151519775,2.619807720184326,2.473661184310913,2.2996761798858643,2.065249443054199,1.7559789419174194,1.387099266052246,1.000128984451294,0.6745102405548096,0.3665197789669037,0.18760043382644653,0.09209486097097397,0.047014929354190826,0.028349829837679863,0.01938546448945999,0.014939627610147,0.012307184748351574,0.010038341395556927,0.00853759702295065,0.007365562953054905,0.006463660858571529,0.005774201825261116,0.005173493642359972,0.004685616586357355,0.004220535978674889,0.0038632580544799566,0.003547599771991372,0.003257347270846367,0.003038574941456318,0.002811022335663438,0.002617839490994811,0.002460549818351865,0.002287103794515133,0.0021227693650871515,0.0020070860628038645,0.0018781471299007535,0.0017675517592579126,0.0016743185697123408,0.0015893123345449567,0.0015043740859255195,0.0014256564900279045,0.001354009727947414,0.001294790650717914,0.0012301328824833035,0.0011706327786669135,0.0011174270184710622,0.0010721114231273532,0.001024295692332089,0.0009791165357455611,0.0009377119713462889,0.0009022036101669073,0.0008646776550449431,0.0008305359515361488,0.0007985045085661113,0.0007669776096008718,0.0007382190669886768,0.0007112454040907323,0.0006875424878671765,0.0006608256371691823,0.0006380518316291273,0.0006173740839585662,0.0005962022114545107,0.0005770500865764916,0.0005583696765825152,0.000538754160515964,0.0005217596190050244,0.0005065190489403903,0.0004926305846311152,0.00047606899170204997,0.00046258457587100565,0.00044687907211482525,0.0004337620339356363,0.0004218048707116395,0.0004101398808415979,0.0003988035605289042,0.0003879295545630157,0.00037670828169211745,0.00036618838203139603,0.00035595742519944906,0.00034736774978227913,0.00033802856341935694,0.00032981543336063623,0.00032071047462522984,0.000312358868541196,0.00030447167227976024,0.0002970235946122557,0.0002898800594266504,0.0002833579492289573,0.00027709559071809053,0.00026961221010424197,0.0002634578268043697,0.00025673702475614846,0.0002510123304091394,0.0002448813756927848,0.00023973273346200585,0.00023447448620572686,0.00022942338546272367,0.00022388299112208188,0.00021950229711364955,0.00021487029152922332,0.00020989516633562744,0.000205201082280837,0.00020127740572206676,0.00019689938926603645,0.00019277063256595284,0.0001887754915514961,0.00018482150335330516,0.00018112549150828272,0.00017756524903234094,0.0001740252337185666,0.00017061886319424957,0.00016712328942958266,0.0001639300025999546,0.00016076222527772188,0.00015774833445902914,0.00015471840742975473,0.0001519441866548732,0.00014872195606585592,0.0001461425854358822,0.00014339717745315284,0.00014085358998272568,0.00013808700896333903,0.00013563467655330896,0.0001332202082267031,0.00013098293857183307,0.00012862405856139958,0.0001262066507479176,0.00012412684736773372,0.00012183754006400704,0.0001197243545902893,0.00011767946125473827,0.00011554912634892389,0.00011381125659681857,0.00011175222607562318,0.00010986878623953089,0.00010805771307786927,0.00010629158350639045,0.00010460336488904431,0.00010287434270139784,0.0001011403146549128,9.940499148797244e-05,9.782169217942283e-05,9.622392826713622e-05,9.46905420278199e-05,9.316667274106294e-05,9.179837798001245e-05,9.023100574268028e-05,8.884742419468239e-05,8.74416800797917e-05,8.605774200987071e-05,8.477507071802393e-05,8.34569800645113e-05,8.22148795123212e-05,8.092854841379449e-05,7.968852878548205e-05,7.849078247090802e-05,7.738137355772778e-05,7.625012949574739e-05,7.508121780119836e-05,7.394627027679235e-05,7.280590943992138e-05,7.177182851592079e-05,7.073168671922758e-05,6.966366345295683e-05,6.862606824142858e-05,6.76652489346452e-05,6.669309368589893e-05,6.575477164005861e-05,6.482766912085935e-05,6.392085197148845e-05,6.302472320385277e-05,6.215184839675203e-05,6.129978282842785e-05,6.044903784641065e-05,5.958031033514999e-05,5.875839997315779e-05,5.795346078230068e-05,5.721770867239684e-05,5.635164779960178e-05,5.561947182286531e-05,5.4885444114916027e-05,5.4086634918348864e-05,5.335778041626327e-05,5.2636300097219646e-05,5.1926614105468616e-05,5.126887481310405e-05,5.06245851283893e-05,4.986682324670255e-05,4.921515210298821e-05,4.859727414441295e-05,4.794380583916791e-05,4.729137435788289e-05,4.669413101510145e-05,4.608659946825355e-05,4.551521851681173e-05,4.5050896005705e-05,4.4350032112561166e-05,4.376499418867752e-05,4.322775930631906e-05
