,0,1,2,3,4,5,6,7,8,9,10,11,12,13,14,15,16,17,18,19,20,21,22,23,24,25,26,27,28,29,30,31,32,33,34,35,36,37,38,39,40,41,42,43,44,45,46,47,48,49,50,51,52,53,54,55,56,57,58,59,60,61,62,63,64,65,66,67,68,69,70,71,72,73,74,75,76,77,78,79,80,81,82,83,84,85,86,87,88,89,90,91,92,93,94,95,96,97,98,99,100,101,102,103,104,105,106,107,108,109,110,111,112,113,114,115,116,117,118,119,120,121,122,123,124,125,126,127,128,129,130,131,132,133,134,135,136,137,138,139,140,141,142,143,144,145,146,147,148,149,150,151,152,153,154,155,156,157,158,159,160,161,162,163,164,165,166,167,168,169,170,171,172,173,174,175,176,177,178,179,180,181,182,183,184,185,186,187,188,189,190,191,192,193,194,195,196,197,198,199
0,4.599989891052246,2.7960751056671143,2.614712953567505,2.4964797496795654,2.327387571334839,2.1046621799468994,1.7930408716201782,1.4145267009735107,1.0144414901733398,0.6533377766609192,0.3544265329837799,0.16374026238918304,0.08355306833982468,0.044917695224285126,0.027894960716366768,0.01996818371117115,0.015051188878715038,0.012342998757958412,0.01044304296374321,0.009044374339282513,0.007707503624260426,0.006744577083736658,0.005943788681179285,0.005396357737481594,0.004847249947488308,0.004335432313382626,0.0039582629688084126,0.0036241027992218733,0.003316656919196248,0.0030888302717357874,0.002843067981302738,0.002669455949217081,0.0024809446185827255,0.0023052780888974667,0.0021696363110095263,0.0020261788740754128,0.0019091538852080703,0.0017996842507272959,0.001700393739156425,0.0015931990928947926,0.0015100868185982108,0.0014327815733850002,0.001361353206448257,0.0012917359126731753,0.0012304295087233186,0.0011755560990422964,0.0011180206201970577,0.0010700469138100743,0.0010228760074824095,0.0009805748704820871,0.0009324434213340282,0.0008951642084866762,0.0008591986261308193,0.000825447088573128,0.0007931389263831079,0.000761203991714865,0.0007340219453908503,0.000706701073795557,0.0006819074042141438,0.000660280988086015,0.0006345979636535048,0.0006135840085335076,0.0005917041562497616,0.0005727063398808241,0.0005548301851376891,0.0005359243368729949,0.0005171462544240057,0.0005009276210330427,0.0004856317536905408,0.00046982578351162374,0.00045551694347523153,0.0004420089826453477,0.00042977978591807187,0.00041674927342683077,0.00040403459570370615,0.00039290188578888774,0.00038167278398759663,0.0003709942102432251,0.0003607814433053136,0.00035086588468402624,0.0003414237580727786,0.0003323590790387243,0.0003238691424485296,0.0003149105468764901,0.0003073980624321848,0.0002999439602717757,0.000292049691779539,0.0002843606343958527,0.0002775849716272205,0.00027135637355968356,0.0002639207523316145,0.00025772314984351397,0.0002515710366424173,0.00024608586682006717,0.00024019071133807302,0.00023483310360461473,0.0002293657453265041,0.00022392490063793957,0.00021895953977946192,0.00021416886011138558,0.00020929738820996135,0.00020465678244363517,0.00020031460735481232,0.0001958322973223403,0.00019153763423673809,0.00018763628031592816,0.00018349834135733545,0.00017969417967833579,0.0001761419844115153,0.00017246862989850342,0.0001688011980149895,0.00016567870625294745,0.00016225341823883355,0.00015906592307146639,0.00015571765834465623,0.00015274064207915217,0.00014973491488490254,0.00014675280544906855,0.00014387010014615953,0.00014119394472800195,0.0001386383519275114,0.00013572952593676746,0.0001333353720838204,0.00013065333769191056,0.00012828561011701822,0.0001258731062989682,0.00012353333295322955,0.00012138486636104062,0.00011902543337782845,0.00011690040264511481,0.0001148115043179132,0.00011280356557108462,0.00011070330947404727,0.00010880594345508143,0.00010710665083024651,0.00010504901729291305,0.00010321324953110889,0.00010138074139831588,9.972813131753355e-05,9.812202915782109e-05,9.627857798477635e-05,9.466789924772456e-05,9.307393338531256e-05,9.173090802505612e-05,9.008607594296336e-05,8.85584086063318e-05,8.720137702766806e-05,8.569133206037804e-05,8.426213753409684e-05,8.289724064525217e-05,8.162138692568988e-05,8.025485294638202e-05,7.894001464592293e-05,7.768474461045116e-05,7.654861110495403e-05,7.53200365579687e-05,7.413191633531824e-05,7.301467849174514e-05,7.182188710430637e-05,7.081533112796023e-05,6.968367233639583e-05,6.865044997539371e-05,6.767841841792688e-05,6.665755063295364e-05,6.562833004863933e-05,6.452221714425832e-05,6.362473504850641e-05,6.254881736822426e-05,6.181252683745697e-05,6.0755399317713454e-05,5.985508323647082e-05,5.893649358768016e-05,5.804114698548801e-05,5.730731936637312e-05,5.6387129006907344e-05,5.561014040722512e-05,5.479496394400485e-05,5.4019808885641396e-05,5.326138489181176e-05,5.2458435675362125e-05,5.170137592358515e-05,5.103489093016833e-05,5.026209692005068e-05,4.956090924679302e-05,4.8863621486816555e-05,4.817425360670313e-05,4.7541645471937954e-05,4.689307388616726e-05,4.620217077899724e-05,4.553431426757015e-05,4.4940559746464714e-05,4.4348693336360157e-05,4.3708045268431306e-05,4.313319732318632e-05,4.255569365341216e-05,4.197766611468978e-05,4.142665056861006e-05,4.087947672815062e-05,4.031391654280014e-05,3.973233106080443e-05
1,3.8154635429382324,2.695159673690796,2.545973539352417,2.378086566925049,2.130659818649292,1.799439549446106,1.3487794399261475,0.890775740146637,0.5199238657951355,0.2649989426136017,0.11985782533884048,0.0590955875813961,0.030394941568374634,0.019818320870399475,0.014386152848601341,0.011260336264967918,0.009319106116890907,0.008110134862363338,0.006956302560865879,0.005943226628005505,0.005292471498250961,0.004670253023505211,0.004241242539137602,0.003842523554340005,0.0034854758996516466,0.003184027737006545,0.0028977433685213327,0.002693774411454797,0.0024728355929255486,0.002297549042850733,0.0021346919238567352,0.001993915531784296,0.0018645228119567037,0.0017504740972071886,0.0016460990300402045,0.0015468106139451265,0.001452153897844255,0.0013665235601365566,0.001300838659517467,0.001228744862601161,0.0011620600707828999,0.0011037528747692704,0.0010493085719645023,0.0010021562920883298,0.0009544193744659424,0.0009124255739152431,0.0008686234359629452,0.0008327527903020382,0.0007980153895914555,0.0007644057623110712,0.0007333690300583839,0.000703287310898304,0.0006720909150317311,0.0006457050330936909,0.0006209797575138509,0.0005979219567961991,0.0005765815731137991,0.0005544784944504499,0.0005352135631255805,0.0005156568367965519,0.0004995989729650319,0.00048188865184783936,0.00046833354281261563,0.00045140774454921484,0.00043606123654171824,0.0004208504979033023,0.0004087866982445121,0.0003955653228331357,0.00038350638351403177,0.0003720163367688656,0.0003608784463722259,0.0003496296121738851,0.0003399827692192048,0.00032980748801492155,0.0003207359986845404,0.0003117945743724704,0.00030350915039889514,0.00029439732315950096,0.000286281225271523,0.00027859225519932806,0.00027201761258766055,0.00026444531977176666,0.00025760653079487383,0.0002511944039724767,0.0002449554158374667,0.0002382289239903912,0.00023228714417200536,0.0002261376503156498,0.00022108656412456185,0.00021583036868833005,0.00021064361499156803,0.00020541947742458433,0.00020058048539794981,0.0001958816428668797,0.00019107467960566282,0.00018693947640713304,0.0001825233775889501,0.0001785992062650621,0.00017457471403758973,0.00017061849939636886,0.00016683395369909704,0.00016313098603859544,0.00015948337386362255,0.00015611240814905614,0.0001529173896415159,0.0001495925389463082,0.00014642525638919324,0.00014363584341481328,0.00014059143722988665,0.00013785767077933997,0.0001350725069642067,0.00013202019908931106,0.0001292540255235508,0.00012683651584666222,0.00012422321015037596,0.00012182856880826876,0.00011943092249566689,0.00011715226719388738,0.0001149526287917979,0.00011276407167315483,0.00011047904990846291,0.00010852456762222573,0.0001063722520484589,0.0001045898170559667,0.00010244004079140723,0.00010057559120468795,9.900263830786571e-05,9.693940955912694e-05,9.520189632894471e-05,9.341733675682917e-05,9.193484584102407e-05,9.009575296659023e-05,8.858214278006926e-05,8.714292198419571e-05,8.539863483747467e-05,8.406349661527202e-05,8.260992763098329e-05,8.114966476568952e-05,7.977743371156976e-05,7.839935278752819e-05,7.70591723266989e-05,7.584332342958078e-05,7.454641308868304e-05,7.335537520702928e-05,7.202619599411264e-05,7.087236735969782e-05,6.969712558202446e-05,6.860626308480278e-05,6.747328006895259e-05,6.64591061649844e-05,6.532602128572762e-05,6.42378581687808e-05,6.328049494186416e-05,6.229963764781132e-05,6.133133138064295e-05,6.034581383573823e-05,5.9389389207353815e-05,5.856539064552635e-05,5.7596560509409755e-05,5.6681914429645985e-05,5.579886419582181e-05,5.4974636441329494e-05,5.4175710829440504e-05,5.333114313543774e-05,5.2503481128951535e-05,5.173978934180923e-05,5.097504617879167e-05,5.0207516324007884e-05,4.956739576300606e-05,4.884451482212171e-05,4.797923247679137e-05,4.731612716568634e-05,4.66433193651028e-05,4.599603562382981e-05,4.5372707973001525e-05,4.464739322429523e-05,4.3986645323457196e-05,4.3356467358535156e-05,4.274478123988956e-05,4.214611180941574e-05,4.154903945163824e-05,4.101771264686249e-05,4.041277861688286e-05,3.986128649557941e-05,3.926172939827666e-05,3.871993612847291e-05,3.820551501121372e-05,3.769275645026937e-05,3.7189391150604934e-05,3.6694433219963685e-05,3.612685395637527e-05,3.5664004826685414e-05,3.5163357097189873e-05,3.467407077550888e-05,3.427537012612447e-05,3.375875894562341e-05,3.3305830584140494e-05,3.2862186344573274e-05,3.24407264997717e-05,3.200405262759887e-05
2,3.7951698303222656,2.7219748497009277,2.5571324825286865,2.374066114425659,2.1070406436920166,1.7262334823608398,1.247936725616455,0.7648889422416687,0.407147616147995,0.18834039568901062,0.07949066907167435,0.03998048976063728,0.022298147901892662,0.016002880409359932,0.012243250384926796,0.00978031475096941,0.008293692953884602,0.00699229259043932,0.0060977451503276825,0.005346002522855997,0.004727666266262531,0.0042650820687413216,0.003877024631947279,0.0035149448085576296,0.0032343401107937098,0.0029370838310569525,0.0027014571242034435,0.0025046830996870995,0.0023101617116481066,0.0021415269002318382,0.0019895790610462427,0.0018559744348749518,0.0017353120492771268,0.0016312358202412724,0.0015242499066516757,0.0014306941302493215,0.0013540198560804129,0.0012775317300111055,0.0012079065199941397,0.0011511591728776693,0.0010902414796873927,0.001039010938256979,0.0009855736279860139,0.0009396419627591968,0.0008934547076933086,0.0008540119742974639,0.0008171024383045733,0.0007816817960701883,0.0007508006528951228,0.0007183690322563052,0.0006884845206514001,0.0006599416374228895,0.0006349248578771949,0.00061061728047207,0.0005882916739210486,0.0005651306710205972,0.0005463818088173866,0.0005256168660707772,0.0005078782560303807,0.0004888552357442677,0.00047159887617453933,0.0004558084474410862,0.00044225098099559546,0.0004265520256012678,0.0004121633537579328,0.00039888598257675767,0.00038748313090763986,0.0003757148515433073,0.00036327450652606785,0.0003522430488374084,0.00034121968201361597,0.00033242101198993623,0.0003223212552256882,0.0003128819225821644,0.0003038706781808287,0.000296154641546309,0.0002874039055313915,0.0002795100153889507,0.0002720367338042706,0.00026474750484339893,0.00025797614944167435,0.0002510616322979331,0.00024427511380054057,0.0002384141698712483,0.0002324633242096752,0.00022657237423118204,0.00022112572332844138,0.00021524740441236645,0.00021029474737588316,0.00020558042160701007,0.00020051536557730287,0.00019509645062498748,0.00019062994397245347,0.00018654350424185395,0.00018244044622406363,0.00017827747797127813,0.00017404078971594572,0.00016967223200481385,0.00016600071103312075,0.00016236492956522852,0.00015917321434244514,0.00015519816952291876,0.000152263673953712,0.0001489526912337169,0.00014591893705073744,0.00014252058463171124,0.0001395346480421722,0.0001367555814795196,0.00013390262029133737,0.00013130629668012261,0.0001288006897084415,0.00012585507647600025,0.000123417834402062,0.00012099995365133509,0.00011850368173327297,0.00011644904589047655,0.00011401527444832027,0.00011189198994543403,0.0001097300773835741,0.00010782407480292022,0.00010569185542408377,0.00010368516086600721,0.00010170879977522418,9.98264440568164e-05,9.798994869925082e-05,9.62706544669345e-05,9.43468912737444e-05,9.266853157896549e-05,9.105850040214136e-05,8.928795432439074e-05,8.768659608904272e-05,8.633355901110917e-05,8.46063849166967e-05,8.325771341333166e-05,8.176102710422128e-05,8.038146188482642e-05,7.906935206847265e-05,7.771024684188887e-05,7.63124116929248e-05,7.512169395340607e-05,7.371676474576816e-05,7.25497302482836e-05,7.134831685107201e-05,7.01968529028818e-05,6.906860653543845e-05,6.78353026160039e-05,6.67920321575366e-05,6.576263695023954e-05,6.455901166191325e-05,6.357970414683223e-05,6.255639891605824e-05,6.157945608720183e-05,6.062563261366449e-05,5.9598129155347124e-05,5.867233267053962e-05,5.769839481217787e-05,5.682521077687852e-05,5.597047493210994e-05,5.509184848051518e-05,5.426620555226691e-05,5.343256634660065e-05,5.2574283472495154e-05,5.177146158530377e-05,5.098836845718324e-05,5.021509787184186e-05,4.9511138058733195e-05,4.873768557445146e-05,4.807137884199619e-05,4.7333469410659745e-05,4.660046397475526e-05,4.595301652443595e-05,4.526524571701884e-05,4.462512151803821e-05,4.4007774704368785e-05,4.3398922571213916e-05,4.277341577108018e-05,4.210260885884054e-05,4.1502808016957715e-05,4.089160211151466e-05,4.032794095110148e-05,3.975769868702628e-05,3.923554322682321e-05,3.865035614580847e-05,3.8143913116073236e-05,3.756445585167967e-05,3.7034253182355314e-05,3.6550816730596125e-05,3.605331221478991e-05,3.5539840609999374e-05,3.5100634704576805e-05,3.454032776062377e-05,3.407764597795904e-05,3.365795419085771e-05,3.3196512958966196e-05,3.275121343904175e-05,3.228734931326471e-05,3.187273250659928e-05,3.1434596166945994e-05,3.0998155125416815e-05,3.06033507513348e-05
3,3.655397891998291,2.6804308891296387,2.5160233974456787,2.310529947280884,2.0369794368743896,1.6819179058074951,1.2507740259170532,0.7924479246139526,0.4741315543651581,0.23604537546634674,0.10986492782831192,0.051469236612319946,0.031034592539072037,0.019577454775571823,0.01454585324972868,0.011365006677806377,0.009409814141690731,0.008085241541266441,0.007013404741883278,0.00617287727072835,0.005431376863270998,0.004774721805006266,0.004324872978031635,0.0038854607846587896,0.0035403557121753693,0.0032603207509964705,0.0029755712021142244,0.002741417847573757,0.0025442619808018208,0.002339187078177929,0.0021867884788662195,0.002033619210124016,0.0019205489661544561,0.001792051480151713,0.0016769666690379381,0.0015785121358931065,0.0014891453320160508,0.0014042698312550783,0.0013351942179724574,0.0012701553059741855,0.0011986579047515988,0.0011344493832439184,0.0010806034551933408,0.0010340223088860512,0.0009817910613492131,0.0009334313217550516,0.0008931782213039696,0.0008552913786843419,0.0008172054076567292,0.000783681171014905,0.0007498566992580891,0.0007201035041362047,0.0006918274448253214,0.0006631865398958325,0.0006386709865182638,0.0006148857064545155,0.0005925020668655634,0.0005690597463399172,0.0005511787021532655,0.0005327012622728944,0.0005142473382875323,0.0004965440602973104,0.000478376226965338,0.00046269784797914326,0.00044736629934050143,0.0004338037979323417,0.0004189560131635517,0.0004065222747158259,0.00039356297929771245,0.00038255914114415646,0.0003704174014274031,0.0003590107662603259,0.0003487068461254239,0.0003383405855856836,0.00032864217064343393,0.00031964294612407684,0.0003114663122687489,0.00030199301545508206,0.00029389088740572333,0.00028651440516114235,0.0002785070100799203,0.00027085383771918714,0.0002645860949996859,0.0002575233520474285,0.0002507911412976682,0.00024453646619804204,0.0002382272359682247,0.0002324785164091736,0.00022665619326289743,0.00022118246124591678,0.00021588818344753236,0.00021077788551338017,0.00020550936460494995,0.0002006633294513449,0.00019634491764009,0.00019227838492952287,0.00018740756786428392,0.0001832510606618598,0.00017931198817677796,0.00017495725478511304,0.00017120061966124922,0.0001676874526310712,0.00016405843780376017,0.00016043614596128464,0.00015718241047579795,0.00015390313637908548,0.0001503235980635509,0.0001475318567827344,0.00014449081209022552,0.00014168168127071112,0.0001387231022818014,0.00013564676919486374,0.00013282732106745243,0.00013041750935371965,0.00012791262997779995,0.0001253075897693634,0.00012275534390937537,0.00012042743765050545,0.00011819013889180496,0.00011620717123150826,0.00011391763837309554,0.00011159209680045024,0.00010961946099996567,0.00010751352965598926,0.0001055014508892782,0.00010362233297200873,0.00010167080472456291,9.976824367186055e-05,9.812420466914773e-05,9.623923688195646e-05,9.457395935896784e-05,9.291850437875837e-05,9.127581870416179e-05,8.970076305558905e-05,8.804055687505752e-05,8.657718717586249e-05,8.49510106490925e-05,8.370492287212983e-05,8.215058915084228e-05,8.07829710538499e-05,7.94825900811702e-05,7.805449422448874e-05,7.678335532546043e-05,7.551775343017653e-05,7.420255860779434e-05,7.322394958464429e-05,7.182259287219495e-05,7.069015555316582e-05,6.957908044569194e-05,6.849734199931845e-05,6.730355380568653e-05,6.629090785281733e-05,6.521634350065142e-05,6.426773325074464e-05,6.321871478576213e-05,6.212765583768487e-05,6.122970080468804e-05,6.0282909544184804e-05,5.937738387729041e-05,5.847844295203686e-05,5.750669151893817e-05,5.6715274695307016e-05,5.583185702562332e-05,5.490694456966594e-05,5.4051797633292153e-05,5.326309474185109e-05,5.255747237242758e-05,5.1694521971512586e-05,5.09491546836216e-05,5.022389450459741e-05,4.9458438297733665e-05,4.875782906310633e-05,4.8027908633230254e-05,4.7324050683528185e-05,4.6618068154202774e-05,4.592126060742885e-05,4.526996417553164e-05,4.4621090637519956e-05,4.398346209200099e-05,4.338064536568709e-05,4.276950494386256e-05,4.217237074044533e-05,4.153680129093118e-05,4.0961844206321985e-05,4.038433689856902e-05,3.983988790423609e-05,3.928194928448647e-05,3.874944741255604e-05,3.820629353867844e-05,3.76711759599857e-05,3.717466825037263e-05,3.668722274596803e-05,3.61501588486135e-05,3.5646742617245764e-05,3.519002711982466e-05,3.4699260140769184e-05,3.421902147238143e-05,3.3778920624172315e-05,3.33158895955421e-05,3.2904354156926274e-05
4,4.126363277435303,2.742527723312378,2.576859474182129,2.4199109077453613,2.2069032192230225,1.9009467363357544,1.5008339881896973,1.036380648612976,0.613766074180603,0.3130541741847992,0.16231076419353485,0.07626918703317642,0.03597578406333923,0.021896308287978172,0.016087541356682777,0.012249376624822617,0.01008817832916975,0.008514484390616417,0.007367163430899382,0.006388974376022816,0.0055069634690880775,0.00493609718978405,0.004310667049139738,0.003919771406799555,0.003561638994142413,0.0032272073440253735,0.0029833840671926737,0.002752342727035284,0.0025365299079567194,0.0023407968692481518,0.002171603962779045,0.0020288811065256596,0.0018962074536830187,0.0017819465138018131,0.0016758270794525743,0.00158227002248168,0.0014878768706694245,0.0014144921442493796,0.001322501222603023,0.0012481006560847163,0.0011828078422695398,0.0011338057229295373,0.0010735791875049472,0.0010222767014056444,0.0009724104893393815,0.0009293603943660855,0.0008901954279281199,0.0008485010475851595,0.0008140966529026628,0.0007782725733704865,0.000747799698729068,0.0007172827608883381,0.0006870721117593348,0.0006604952504858375,0.0006342417909763753,0.0006095388089306653,0.0005879336385987699,0.0005677430890500546,0.0005474189529195428,0.0005276604788377881,0.0005090742488391697,0.0004924254026263952,0.0004747764905914664,0.00045877142110839486,0.0004434582369867712,0.00042869130265899,0.00041571687324903905,0.00040338459075428545,0.00039072497747838497,0.00037898740265518427,0.0003672216844279319,0.00035642474540509284,0.00034604573738761246,0.00033629636163823307,0.0003261288511566818,0.0003170887066517025,0.0003087434743065387,0.0002999928256031126,0.00029189849738031626,0.00028408740763552487,0.0002766417746897787,0.0002692659618332982,0.0002617720456328243,0.00025486957747489214,0.0002486231969669461,0.00024239289632532746,0.00023666794004384428,0.00023026320559438318,0.00022470418480224907,0.0002190726372646168,0.00021398277021944523,0.00020911407773382962,0.00020415402832441032,0.00019962717487942427,0.00019463116768747568,0.00019050428818445653,0.00018642765644472092,0.00018188817193731666,0.00017793019651435316,0.0001738129067234695,0.00016979129577521235,0.00016654083447065204,0.0001625984295969829,0.00015940006414894015,0.00015600539336446673,0.00015281359083019197,0.00014968219329603016,0.00014656454732175916,0.00014327038661576807,0.00014077805099077523,0.00013773786486126482,0.00013519503409042954,0.0001324560580542311,0.00012972124386578798,0.00012698303908109665,0.0001244174491148442,0.00012245360994711518,0.00011998137779301032,0.00011772531433962286,0.0001152324621216394,0.00011324519437039271,0.00011117130634374917,0.00010892825230257586,0.00010701216524466872,0.00010499395284568891,0.00010317048872821033,0.00010123114043381065,9.955212590284646e-05,9.761721594259143e-05,9.590931585989892e-05,9.423025039723143e-05,9.256754128728062e-05,9.088777733268216e-05,8.93521573743783e-05,8.781964424997568e-05,8.624926704214886e-05,8.479103416902944e-05,8.342530782101676e-05,8.211540261982009e-05,8.060620893957093e-05,7.937222108012065e-05,7.806496432749555e-05,7.677751273149624e-05,7.540973456343636e-05,7.416323205688968e-05,7.296224066521972e-05,7.18205192242749e-05,7.064860983518884e-05,6.9501853431575e-05,6.831643986515701e-05,6.724645936628804e-05,6.624751404160634e-05,6.51521040708758e-05,6.412820948753506e-05,6.31657603662461e-05,6.210598803590983e-05,6.12119329161942e-05,6.0312679124763235e-05,5.935589797445573e-05,5.844085899298079e-05,5.756672180723399e-05,5.6714776292210445e-05,5.583018355537206e-05,5.4956584790488705e-05,5.418592263595201e-05,5.34043756488245e-05,5.2627983677666634e-05,5.176030026632361e-05,5.109937410452403e-05,5.033746128901839e-05,4.955798067385331e-05,4.886837996309623e-05,4.8210640670731664e-05,4.743376484839246e-05,4.6784374717390165e-05,4.616170554072596e-05,4.541077942121774e-05,4.48302089353092e-05,4.415573857841082e-05,4.353933036327362e-05,4.294657628634013e-05,4.236546010361053e-05,4.1738352592801675e-05,4.11336513934657e-05,4.0617822378408164e-05,4.0000577428145334e-05,3.9508220652351156e-05,3.8928228605072945e-05,3.84371705877129e-05,3.789153925026767e-05,3.7364403397077695e-05,3.687186472234316e-05,3.635644679889083e-05,3.587129322113469e-05,3.5430199204711244e-05,3.492843097774312e-05,3.444895628490485e-05,3.401016510906629e-05,3.358373214723542e-05,3.312849730718881e-05
5,4.133028984069824,2.7469708919525146,2.5852243900299072,2.4409992694854736,2.241755962371826,1.9580873250961304,1.611099362373352,1.1502355337142944,0.753866970539093,0.4326367676258087,0.21019959449768066,0.10285837948322296,0.04908299818634987,0.029293060302734375,0.019182153046131134,0.014088831841945648,0.011434380896389484,0.009566059336066246,0.008122359402477741,0.0070493388921022415,0.0061107901856303215,0.0054202601313591,0.0048597147688269615,0.0043653324246406555,0.004007511306554079,0.0035620122216641903,0.003258364973589778,0.0030130166560411453,0.002768965670838952,0.00255289557389915,0.0023698238655924797,0.0022107353433966637,0.0020533096976578236,0.0019249175675213337,0.0018031111685559154,0.0016961711226031184,0.00159242853987962,0.0015004940796643496,0.0014121896820142865,0.0013401176547631621,0.0012722666142508388,0.0012065023183822632,0.0011436741333454847,0.0010884043294936419,0.0010358529398217797,0.0009887904161587358,0.0009457784472033381,0.0009020873694680631,0.0008627849747426808,0.0008263126364909112,0.000792652484960854,0.0007596067152917385,0.0007291671354323626,0.0006989072426222265,0.0006717435899190605,0.0006472707609646022,0.0006244111573323607,0.0006006303592585027,0.0005777628975920379,0.0005571920773945749,0.0005386424018070102,0.000520756933838129,0.0005024244892410934,0.00048511690692976117,0.0004682880244217813,0.000453673186711967,0.0004388011002447456,0.0004254368250258267,0.00041179434629157186,0.0003998529864475131,0.00038775563007220626,0.0003755324869416654,0.00036498327972367406,0.00035418084007687867,0.00034408632200211287,0.00033456235541962087,0.0003246404230594635,0.0003148414252791554,0.00030713711748830974,0.00029875378822907805,0.0002903267741203308,0.0002834698825608939,0.00027562357718124986,0.00026792060816660523,0.0002608280337881297,0.0002541663416195661,0.0002486012817826122,0.00024144802591763437,0.0002359311911277473,0.0002301467175129801,0.00022418070875573903,0.00021898816339671612,0.0002138095733243972,0.00020884379046037793,0.00020380997739266604,0.00019875919679179788,0.00019442049961071461,0.0001901506766444072,0.00018617813475430012,0.00018137722508981824,0.00017773635045159608,0.0001735980185912922,0.00016990020230878145,0.0001660808193264529,0.00016221633995883167,0.00015901238657534122,0.0001557015930302441,0.00015228689881041646,0.00014914170606061816,0.00014593593368772417,0.00014288720558397472,0.00014004777767695487,0.0001370990212308243,0.0001342336181551218,0.00013170228339731693,0.0001290990476263687,0.0001265956525458023,0.00012407403846736997,0.00012157323362771422,0.00011912922491319478,0.00011679469025693834,0.00011476014333311468,0.00011257021833444014,0.00011049357271986082,0.00010825478966580704,0.00010643507266649976,0.00010429741814732552,0.00010246942838421091,0.00010046950774267316,9.862001752480865e-05,9.698340727481991e-05,9.5156385214068e-05,9.36354263103567e-05,9.188831609208137e-05,9.020543075166643e-05,8.863859693519771e-05,8.710732799954712e-05,8.555744716431946e-05,8.405048720305786e-05,8.274275751318783e-05,8.125366002786905e-05,7.98771288827993e-05,7.848678797017783e-05,7.714578532613814e-05,7.590197492390871e-05,7.460601773345843e-05,7.343226752709597e-05,7.233968062791973e-05,7.102513336576521e-05,6.993539864197373e-05,6.870392826385796e-05,6.757274240953848e-05,6.647625559708104e-05,6.540548201883212e-05,6.444012251449749e-05,6.34125099168159e-05,6.246407428989187e-05,6.141918856883422e-05,6.0435566410887986e-05,5.951005732640624e-05,5.8569836255628616e-05,5.765230889664963e-05,5.680117101292126e-05,5.5844386224634945e-05,5.50873955944553e-05,5.423637048806995e-05,5.332812725100666e-05,5.2606304961955175e-05,5.17849694006145e-05,5.1087623432977125e-05,5.033942579757422e-05,4.9529149691807106e-05,4.880979759036563e-05,4.810712925973348e-05,4.737265044241212e-05,4.6677247155457735e-05,4.598013765644282e-05,4.534197069006041e-05,4.47146812803112e-05,4.401898695505224e-05,4.340872692409903e-05,4.2793148168129846e-05,4.2228006350342184e-05,4.163182165939361e-05,4.1004237573361024e-05,4.04428101319354e-05,3.986885349149816e-05,3.93262344005052e-05,3.875221955240704e-05,3.8243771996349096e-05,3.77618707716465e-05,3.72051217709668e-05,3.6711520806420594e-05,3.6168716178508475e-05,3.569427281036042e-05,3.5226799809606746e-05,3.472633761703037e-05,3.4262295230291784e-05,3.382776048965752e-05,3.33744210365694e-05
6,4.037123680114746,2.703495979309082,2.552366018295288,2.3914084434509277,2.150974750518799,1.8062244653701782,1.3636727333068848,0.9065521955490112,0.5206711292266846,0.25020092725753784,0.12347322702407837,0.055046726018190384,0.029321016743779182,0.018658801913261414,0.013278738595545292,0.010373180732131004,0.00860364269465208,0.007317602168768644,0.006273907143622637,0.005473734810948372,0.004911444149911404,0.004393404815346003,0.003931459505110979,0.003536082338541746,0.003242913633584976,0.002992012770846486,0.002721830504015088,0.002525611547753215,0.002334695542231202,0.0021600977052003145,0.0020163455046713352,0.0018795073265209794,0.0017600024584680796,0.0016537990886718035,0.0015451561193913221,0.0014542803401127458,0.0013721963623538613,0.0013032716233283281,0.0012339579407125711,0.0011611174559220672,0.0010993542382493615,0.0010517565533518791,0.0010000882903113961,0.0009537593577988446,0.0009062766912393272,0.0008676676079630852,0.0008237204747274518,0.000788319855928421,0.0007572611793875694,0.0007258501718752086,0.0006956395227462053,0.0006670682923868299,0.0006415387615561485,0.0006180535419844091,0.000593914242926985,0.0005714670987799764,0.0005512408097274601,0.0005310096312314272,0.0005120081477798522,0.0004930755821987987,0.00047702345182187855,0.0004617461818270385,0.0004451099084690213,0.00043094417196698487,0.00041785702342167497,0.0004042107320856303,0.000391882291296497,0.0003789209295064211,0.00036729866405948997,0.00035682463203556836,0.0003455516416579485,0.0003351935010869056,0.00032517826184630394,0.0003162040375173092,0.0003077065630350262,0.0002988011110574007,0.00029059103690087795,0.0002827809366863221,0.00027483730809763074,0.0002676929289009422,0.00026126031298190355,0.00025343033485114574,0.0002469741157256067,0.00024086904886644334,0.00023480385425500572,0.00022902051568962634,0.00022308329062070698,0.00021794742497149855,0.00021246777032501996,0.0002076411183224991,0.0002023701963480562,0.0001975833874894306,0.00019286137830931693,0.00018834118964150548,0.00018411193741485476,0.00017988042964134365,0.0001757689897203818,0.00017211950034834445,0.00016827735817059875,0.00016454941942356527,0.00016105303075164557,0.00015754297783132643,0.00015420815907418728,0.00015061895828694105,0.00014746715896762908,0.00014447480498347431,0.00014155494864098728,0.00013872516865376383,0.00013568397844210267,0.00013286432658787817,0.00013038507313467562,0.00012783275451511145,0.00012516637798398733,0.00012258370406925678,0.00012032494123559445,0.00011777005420299247,0.00011575994722079486,0.00011348687257850543,0.00011136875400552526,0.00010918073530774564,0.00010712970833992586,0.00010507662955205888,0.00010319594002794474,0.00010145546548301354,9.937513823388144e-05,9.763321577338502e-05,9.576681623002514e-05,9.408294135937467e-05,9.231439616996795e-05,9.089237573789433e-05,8.91121817403473e-05,8.768056432018057e-05,8.614068065071478e-05,8.454089402221143e-05,8.316335151903331e-05,8.173576497938484e-05,8.031384641071782e-05,7.890808774391189e-05,7.758718129480258e-05,7.627585000591353e-05,7.497674960177392e-05,7.369372906396165e-05,7.254740921780467e-05,7.140332309063524e-05,7.02382021700032e-05,6.914059486007318e-05,6.795531226089224e-05,6.686868437100202e-05,6.574654253199697e-05,6.466412014560774e-05,6.368959293467924e-05,6.258754729060456e-05,6.173612200655043e-05,6.073506301618181e-05,5.978625267744064e-05,5.888635496376082e-05,5.7909815950552e-05,5.7050943723879755e-05,5.6091437727445737e-05,5.5323198466794565e-05,5.445486385724507e-05,5.365912147681229e-05,5.2765419241040945e-05,5.1991926738992333e-05,5.122362563270144e-05,5.048087041359395e-05,4.969855581293814e-05,4.8947706090984866e-05,4.826258373213932e-05,4.752692984766327e-05,4.686445390689187e-05,4.6169705456122756e-05,4.5520664571085945e-05,4.486848774831742e-05,4.42617129010614e-05,4.3634128815028816e-05,4.3027357605751604e-05,4.2338346247561276e-05,4.1733997932169586e-05,4.116075797355734e-05,4.0524417272536084e-05,3.9982624002732337e-05,3.942037801607512e-05,3.88744447263889e-05,3.83452425012365e-05,3.7766203604405746e-05,3.726586146513e-05,3.6739376810146496e-05,3.626386387622915e-05,3.5775407013716176e-05,3.527618173393421e-05,3.478168582660146e-05,3.430883589317091e-05,3.3859578252304345e-05,3.3409603929612786e-05,3.295272108516656e-05,3.2502688554814085e-05,3.207169720553793e-05,3.163344081258401e-05,3.1202151149045676e-05
7,3.7769203186035156,2.6990959644317627,2.5216658115386963,2.319040298461914,2.020174026489258,1.6396584510803223,1.153572678565979,0.7171416282653809,0.36740803718566895,0.18515755236148834,0.08774647861719131,0.04763142764568329,0.027289733290672302,0.0183357335627079,0.01334223710000515,0.010552443563938141,0.009067193605005741,0.007652305532246828,0.006608208175748587,0.005817666184157133,0.005183380097150803,0.00463642505928874,0.004181534051895142,0.0038462572265416384,0.0034827087074518204,0.0031947537790983915,0.002937206532806158,0.002725291298702359,0.0025119732599705458,0.0023287469521164894,0.0021856618113815784,0.002040926134213805,0.0018891521031036973,0.0017705622594803572,0.001659971196204424,0.0015688723651692271,0.0014800759963691235,0.0013992383610457182,0.0013216027291491628,0.001252277405001223,0.0011907211737707257,0.0011307613458484411,0.0010803237091749907,0.0010212501510977745,0.0009744525304995477,0.0009326498256996274,0.0008892563637346029,0.0008486347505822778,0.0008099075057543814,0.0007782272878102958,0.000747026817407459,0.0007158159860409796,0.0006880079163238406,0.0006596838356927037,0.0006368723697960377,0.0006124772480688989,0.0005887047736905515,0.000570219533983618,0.000552129466086626,0.000528295582626015,0.0005108803743496537,0.0004920461215078831,0.00047619928955100477,0.00045877075172029436,0.0004445993108674884,0.00043009393266402185,0.0004164984857197851,0.0004031356074847281,0.00039039546390995383,0.0003788421454373747,0.0003667764540296048,0.00035666092298924923,0.00034696829970926046,0.000335603574058041,0.00032678863499313593,0.00031747788307256997,0.00030817356309853494,0.0002990227658301592,0.0002908954047597945,0.00028319263947196305,0.00027577736182138324,0.000268869916908443,0.0002616025449242443,0.0002546641626395285,0.0002479136164765805,0.00024163546913769096,0.00023580632114317268,0.0002302567008882761,0.00022427941439673305,0.00021843893046025187,0.00021310568263288587,0.0002080128324450925,0.00020305821090005338,0.00019840362074319273,0.00019365153275430202,0.00018952280515804887,0.00018488988280296326,0.00018087224452756345,0.00017705940990708768,0.00017236609710380435,0.00016933762526605278,0.00016551694716326892,0.00016158308426383883,0.0001579281670274213,0.0001547426509205252,0.0001512080489192158,0.00014843813551124185,0.00014533991634380072,0.00014217130956239998,0.0001390561810694635,0.000136426548124291,0.0001334807020612061,0.0001308592181885615,0.000128145853523165,0.0001256906398339197,0.00012329254241194576,0.00012063937174389139,0.0001184014618047513,0.00011611555237323046,0.00011381460353732109,0.00011173223174409941,0.00010974997712764889,0.00010740770085249096,0.0001057372210198082,0.00010355541598983109,0.00010175778879784048,9.977631998481229e-05,9.801136911846697e-05,9.626268001738936e-05,9.442559530725703e-05,9.28093068068847e-05,9.109354868996888e-05,8.948140020947903e-05,8.788168634055182e-05,8.631277160020545e-05,8.481851546093822e-05,8.342718501808122e-05,8.199288276955485e-05,8.06077805464156e-05,7.927597471280023e-05,7.798580190865323e-05,7.655085937585682e-05,7.53203930798918e-05,7.401460607070476e-05,7.286823529284447e-05,7.168873707996681e-05,7.036703755147755e-05,6.925908382982016e-05,6.812588253524154e-05,6.697203207295388e-05,6.592970748897642e-05,6.485921767307445e-05,6.394684896804392e-05,6.29299902357161e-05,6.187588587636128e-05,6.0906033468199894e-05,5.991856596665457e-05,5.902137854718603e-05,5.811112714582123e-05,5.717088424717076e-05,5.62984096177388e-05,5.5511485697934404e-05,5.464593050419353e-05,5.378031710279174e-05,5.2965424401918426e-05,5.211695679463446e-05,5.136100298841484e-05,5.055084693594836e-05,4.9803536967374384e-05,4.90577585878782e-05,4.834463106817566e-05,4.767322388943285e-05,4.7024361265357584e-05,4.6258959628175944e-05,4.5600034354720265e-05,4.4878976041218266e-05,4.4247248297324404e-05,4.359589729574509e-05,4.306533810449764e-05,4.2349005525466055e-05,4.1780844185268506e-05,4.121291931369342e-05,4.059762795805e-05,4.00590906792786e-05,3.9475911762565374e-05,3.893157918355428e-05,3.8394871808122844e-05,3.7852842069696635e-05,3.730394382728264e-05,3.6784324038308114e-05,3.631331128417514e-05,3.579457552405074e-05,3.533644849085249e-05,3.488511356408708e-05,3.436578845139593e-05,3.392244252609089e-05,3.3444030123064294e-05,3.298790761618875e-05,3.255804404034279e-05,3.2138290407601744e-05
